# energy(eV) normalized_intensity
1.141400e+04 6.428988e-04
1.141450e+04 6.249422e-04
1.141500e+04 6.071349e-04
1.141550e+04 5.894782e-04
1.141600e+04 5.719736e-04
1.141650e+04 5.546233e-04
1.141700e+04 5.374284e-04
1.141750e+04 5.203906e-04
1.141800e+04 5.035116e-04
1.141850e+04 4.867935e-04
1.141900e+04 4.702374e-04
1.141950e+04 4.538452e-04
1.142000e+04 4.376191e-04
1.142050e+04 4.215604e-04
1.142100e+04 4.056708e-04
1.142150e+04 3.899527e-04
1.142200e+04 3.744079e-04
1.142250e+04 3.590376e-04
1.142300e+04 3.438445e-04
1.142350e+04 3.288304e-04
1.142400e+04 3.139970e-04
1.142450e+04 2.993464e-04
1.142500e+04 2.848809e-04
1.142550e+04 2.706023e-04
1.142600e+04 2.565127e-04
1.142650e+04 2.426144e-04
1.142700e+04 2.289093e-04
1.142750e+04 2.153999e-04
1.142800e+04 2.020883e-04
1.142850e+04 1.889769e-04
1.142900e+04 1.760678e-04
1.142950e+04 1.633633e-04
1.143000e+04 1.508663e-04
1.143050e+04 1.385783e-04
1.143100e+04 1.265026e-04
1.143150e+04 1.146411e-04
1.143200e+04 1.029968e-04
1.143250e+04 9.157187e-05
1.143300e+04 8.036924e-05
1.143350e+04 6.939121e-05
1.143400e+04 5.864093e-05
1.143450e+04 4.812040e-05
1.143500e+04 3.783309e-05
1.143550e+04 2.778157e-05
1.143600e+04 1.796871e-05
1.143650e+04 8.397383e-06
1.143700e+04 -9.292457e-07
1.143750e+04 -1.000860e-05
1.143800e+04 -1.883722e-05
1.143850e+04 -2.741225e-05
1.143900e+04 -3.573023e-05
1.143950e+04 -4.378830e-05
1.144000e+04 -5.158301e-05
1.144050e+04 -5.911120e-05
1.144100e+04 -6.636913e-05
1.144150e+04 -7.335366e-05
1.144200e+04 -8.006132e-05
1.144250e+04 -8.648868e-05
1.144300e+04 -9.263172e-05
1.144350e+04 -9.848698e-05
1.144400e+04 -1.040507e-04
1.144450e+04 -1.093193e-04
1.144500e+04 -1.142885e-04
1.144550e+04 -1.189545e-04
1.144600e+04 -1.233138e-04
1.144650e+04 -1.273614e-04
1.144700e+04 -1.310940e-04
1.144750e+04 -1.345070e-04
1.144800e+04 -1.375962e-04
1.144850e+04 -1.403570e-04
1.144900e+04 -1.427854e-04
1.144950e+04 -1.448764e-04
1.145000e+04 -1.466254e-04
1.145050e+04 -1.480282e-04
1.145100e+04 -1.490796e-04
1.145150e+04 -1.497748e-04
1.145200e+04 -1.501088e-04
1.145250e+04 -1.500766e-04
1.145300e+04 -1.496733e-04
1.145350e+04 -1.488929e-04
1.145400e+04 -1.477309e-04
1.145450e+04 -1.461817e-04
1.145500e+04 -1.442391e-04
1.145550e+04 -1.418981e-04
1.145600e+04 -1.391528e-04
1.145650e+04 -1.359973e-04
1.145700e+04 -1.324255e-04
1.145750e+04 -1.284314e-04
1.145800e+04 -1.240086e-04
1.145850e+04 -1.191510e-04
1.145900e+04 -1.138517e-04
1.145950e+04 -1.081047e-04
1.146000e+04 -1.019030e-04
1.146050e+04 -9.523952e-05
1.146100e+04 -8.810736e-05
1.146150e+04 -8.049933e-05
1.146200e+04 -7.240824e-05
1.146250e+04 -6.382664e-05
1.146300e+04 -5.474705e-05
1.146350e+04 -4.516143e-05
1.146400e+04 -3.506203e-05
1.146450e+04 -2.444052e-05
1.146500e+04 -1.328887e-05
1.146550e+04 -1.598735e-06
1.146600e+04 1.063878e-05
1.146650e+04 2.343229e-05
1.146700e+04 3.679098e-05
1.146750e+04 5.072377e-05
1.146800e+04 6.524011e-05
1.146850e+04 8.034979e-05
1.146900e+04 9.606227e-05
1.146950e+04 1.123879e-04
1.147000e+04 1.293367e-04
1.147050e+04 1.469191e-04
1.147100e+04 1.651459e-04
1.147150e+04 1.840280e-04
1.147200e+04 2.035768e-04
1.147250e+04 2.238035e-04
1.147300e+04 2.447201e-04
1.147350e+04 2.663380e-04
1.147400e+04 2.886701e-04
1.147450e+04 3.117285e-04
1.147500e+04 3.355262e-04
1.147550e+04 3.600765e-04
1.147600e+04 3.853925e-04
1.147650e+04 4.114882e-04
1.147700e+04 4.383776e-04
1.147750e+04 4.660752e-04
1.147800e+04 4.945962e-04
1.147850e+04 5.239549e-04
1.147900e+04 5.541677e-04
1.147950e+04 5.852500e-04
1.148000e+04 6.172181e-04
1.148050e+04 6.500890e-04
1.148100e+04 6.838798e-04
1.148150e+04 7.186079e-04
1.148200e+04 7.542916e-04
1.148250e+04 7.909490e-04
1.148300e+04 8.285996e-04
1.148350e+04 8.672624e-04
1.148400e+04 9.069577e-04
1.148450e+04 9.477058e-04
1.148500e+04 9.895280e-04
1.148550e+04 1.032446e-03
1.148600e+04 1.076481e-03
1.148650e+04 1.121657e-03
1.148700e+04 1.167997e-03
1.148750e+04 1.215525e-03
1.148800e+04 1.264266e-03
1.148850e+04 1.314246e-03
1.148900e+04 1.365489e-03
1.148950e+04 1.418024e-03
1.149000e+04 1.471878e-03
1.149050e+04 1.527079e-03
1.149100e+04 1.583656e-03
1.149150e+04 1.641641e-03
1.149200e+04 1.701063e-03
1.149250e+04 1.761954e-03
1.149300e+04 1.824348e-03
1.149350e+04 1.888278e-03
1.149400e+04 1.953780e-03
1.149450e+04 2.020888e-03
1.149500e+04 2.089640e-03
1.149550e+04 2.160075e-03
1.149600e+04 2.232230e-03
1.149650e+04 2.306148e-03
1.149700e+04 2.381870e-03
1.149750e+04 2.459439e-03
1.149800e+04 2.538899e-03
1.149850e+04 2.620297e-03
1.149900e+04 2.703680e-03
1.149950e+04 2.789097e-03
1.150000e+04 2.876598e-03
1.150050e+04 2.966237e-03
1.150100e+04 3.058067e-03
1.150150e+04 3.152144e-03
1.150200e+04 3.248526e-03
1.150250e+04 3.347273e-03
1.150300e+04 3.448446e-03
1.150350e+04 3.552110e-03
1.150400e+04 3.658332e-03
1.150450e+04 3.767179e-03
1.150500e+04 3.878724e-03
1.150550e+04 3.993039e-03
1.150600e+04 4.110202e-03
1.150650e+04 4.230291e-03
1.150700e+04 4.353390e-03
1.150750e+04 4.479583e-03
1.150800e+04 4.608959e-03
1.150850e+04 4.741609e-03
1.150900e+04 4.877630e-03
1.150950e+04 5.017121e-03
1.151000e+04 5.160185e-03
1.151050e+04 5.306930e-03
1.151100e+04 5.457466e-03
1.151150e+04 5.611910e-03
1.151200e+04 5.770384e-03
1.151250e+04 5.933013e-03
1.151300e+04 6.099927e-03
1.151350e+04 6.271265e-03
1.151400e+04 6.447168e-03
1.151450e+04 6.627786e-03
1.151500e+04 6.813273e-03
1.151550e+04 7.003792e-03
1.151600e+04 7.199512e-03
1.151650e+04 7.400609e-03
1.151700e+04 7.607270e-03
1.151750e+04 7.819687e-03
1.151800e+04 8.038062e-03
1.151850e+04 8.262609e-03
1.151900e+04 8.493549e-03
1.151950e+04 8.731115e-03
1.152000e+04 8.975551e-03
1.152050e+04 9.227113e-03
1.152100e+04 9.486071e-03
1.152150e+04 9.752706e-03
1.152200e+04 1.002732e-02
1.152250e+04 1.031022e-02
1.152300e+04 1.060173e-02
1.152350e+04 1.090221e-02
1.152400e+04 1.121202e-02
1.152450e+04 1.153153e-02
1.152500e+04 1.186117e-02
1.152550e+04 1.220136e-02
1.152600e+04 1.255254e-02
1.152650e+04 1.291521e-02
1.152700e+04 1.328986e-02
1.152750e+04 1.367704e-02
1.152800e+04 1.407732e-02
1.152850e+04 1.449128e-02
1.152900e+04 1.491959e-02
1.152950e+04 1.536292e-02
1.153000e+04 1.582200e-02
1.153050e+04 1.629759e-02
1.153100e+04 1.679052e-02
1.153150e+04 1.730166e-02
1.153200e+04 1.783196e-02
1.153250e+04 1.838241e-02
1.153300e+04 1.895408e-02
1.153350e+04 1.954813e-02
1.153400e+04 2.016577e-02
1.153450e+04 2.080833e-02
1.153500e+04 2.147722e-02
1.153550e+04 2.217399e-02
1.153600e+04 2.290025e-02
1.153650e+04 2.365781e-02
1.153700e+04 2.444856e-02
1.153750e+04 2.527459e-02
1.153800e+04 2.613814e-02
1.153850e+04 2.704165e-02
1.153900e+04 2.798778e-02
1.153950e+04 2.897940e-02
1.154000e+04 3.001967e-02
1.154050e+04 3.111203e-02
1.154100e+04 3.226024e-02
1.154150e+04 3.346842e-02
1.154200e+04 3.474111e-02
1.154250e+04 3.608331e-02
1.154300e+04 3.750052e-02
1.154350e+04 3.899883e-02
1.154400e+04 4.058500e-02
1.154450e+04 4.226653e-02
1.154500e+04 4.405178e-02
1.154550e+04 4.595008e-02
1.154600e+04 4.797190e-02
1.154650e+04 5.012898e-02
1.154700e+04 5.243457e-02
1.154750e+04 5.490364e-02
1.154800e+04 5.755318e-02
1.154850e+04 6.040252e-02
1.154900e+04 6.347377e-02
1.154950e+04 6.679227e-02
1.155000e+04 7.038725e-02
1.155050e+04 7.429252e-02
1.155100e+04 7.854740e-02
1.155150e+04 8.319783e-02
1.155200e+04 8.829776e-02
1.155250e+04 9.391094e-02
1.155300e+04 1.001131e-01
1.155350e+04 1.069947e-01
1.155400e+04 1.146647e-01
1.155410e+04 1.163045e-01
1.155420e+04 1.179821e-01
1.155430e+04 1.196989e-01
1.155440e+04 1.214561e-01
1.155450e+04 1.232551e-01
1.155460e+04 1.250972e-01
1.155470e+04 1.269839e-01
1.155480e+04 1.289166e-01
1.155490e+04 1.308971e-01
1.155500e+04 1.329268e-01
1.155510e+04 1.350076e-01
1.155520e+04 1.371412e-01
1.155530e+04 1.393295e-01
1.155540e+04 1.415744e-01
1.155550e+04 1.438780e-01
1.155560e+04 1.462423e-01
1.155570e+04 1.486697e-01
1.155580e+04 1.511625e-01
1.155590e+04 1.537230e-01
1.155600e+04 1.563539e-01
1.155610e+04 1.590578e-01
1.155620e+04 1.618375e-01
1.155630e+04 1.646959e-01
1.155640e+04 1.676361e-01
1.155650e+04 1.706613e-01
1.155660e+04 1.737749e-01
1.155670e+04 1.769804e-01
1.155680e+04 1.802816e-01
1.155690e+04 1.836822e-01
1.155700e+04 1.871865e-01
1.155710e+04 1.907986e-01
1.155720e+04 1.945232e-01
1.155730e+04 1.983650e-01
1.155740e+04 2.023288e-01
1.155750e+04 2.064200e-01
1.155760e+04 2.106442e-01
1.155770e+04 2.150069e-01
1.155780e+04 2.195145e-01
1.155790e+04 2.241732e-01
1.155800e+04 2.289898e-01
1.155810e+04 2.339715e-01
1.155820e+04 2.391257e-01
1.155830e+04 2.444603e-01
1.155840e+04 2.499836e-01
1.155850e+04 2.557043e-01
1.155860e+04 2.616317e-01
1.155870e+04 2.677753e-01
1.155880e+04 2.741455e-01
1.155890e+04 2.807529e-01
1.155900e+04 2.876089e-01
1.155910e+04 2.947254e-01
1.155920e+04 3.021147e-01
1.155930e+04 3.097902e-01
1.155940e+04 3.177656e-01
1.155950e+04 3.260554e-01
1.155960e+04 3.346748e-01
1.155970e+04 3.436396e-01
1.155980e+04 3.529667e-01
1.155990e+04 3.626734e-01
1.156000e+04 3.727779e-01
1.156010e+04 3.832990e-01
1.156020e+04 3.942564e-01
1.156030e+04 4.056705e-01
1.156040e+04 4.175622e-01
1.156050e+04 4.299532e-01
1.156060e+04 4.428656e-01
1.156070e+04 4.563218e-01
1.156080e+04 4.703447e-01
1.156090e+04 4.849571e-01
1.156100e+04 5.001818e-01
1.156110e+04 5.160412e-01
1.156120e+04 5.325569e-01
1.156130e+04 5.497495e-01
1.156140e+04 5.676381e-01
1.156150e+04 5.862397e-01
1.156160e+04 6.055686e-01
1.156170e+04 6.256358e-01
1.156180e+04 6.464483e-01
1.156190e+04 6.680078e-01
1.156200e+04 6.903103e-01
1.156210e+04 7.133445e-01
1.156220e+04 7.370915e-01
1.156230e+04 7.615226e-01
1.156240e+04 7.865990e-01
1.156250e+04 8.122704e-01
1.156260e+04 8.384738e-01
1.156270e+04 8.651331e-01
1.156280e+04 8.921580e-01
1.156290e+04 9.194440e-01
1.156300e+04 9.468725e-01
1.156310e+04 9.743112e-01
1.156320e+04 1.001616e+00
1.156330e+04 1.028630e+00
1.156340e+04 1.055192e+00
1.156350e+04 1.081131e+00
1.156360e+04 1.106278e+00
1.156370e+04 1.130464e+00
1.156380e+04 1.153528e+00
1.156390e+04 1.175316e+00
1.156400e+04 1.195694e+00
1.156410e+04 1.214532e+00
1.156420e+04 1.231725e+00
1.156430e+04 1.247197e+00
1.156440e+04 1.260895e+00
1.156450e+04 1.272794e+00
1.156460e+04 1.282893e+00
1.156470e+04 1.291211e+00
1.156480e+04 1.297792e+00
1.156490e+04 1.302696e+00
1.156500e+04 1.305998e+00
1.156510e+04 1.307785e+00
1.156520e+04 1.308153e+00
1.156530e+04 1.307205e+00
1.156540e+04 1.305045e+00
1.156550e+04 1.301780e+00
1.156560e+04 1.297518e+00
1.156570e+04 1.292362e+00
1.156580e+04 1.286414e+00
1.156590e+04 1.279773e+00
1.156600e+04 1.272530e+00
1.156610e+04 1.264775e+00
1.156620e+04 1.256591e+00
1.156630e+04 1.248058e+00
1.156640e+04 1.239249e+00
1.156650e+04 1.230233e+00
1.156660e+04 1.221074e+00
1.156670e+04 1.211832e+00
1.156680e+04 1.202561e+00
1.156690e+04 1.193311e+00
1.156700e+04 1.184128e+00
1.156710e+04 1.175054e+00
1.156720e+04 1.166127e+00
1.156730e+04 1.157378e+00
1.156740e+04 1.148838e+00
1.156750e+04 1.140533e+00
1.156760e+04 1.132484e+00
1.156770e+04 1.124709e+00
1.156780e+04 1.117225e+00
1.156790e+04 1.110042e+00
1.156800e+04 1.103170e+00
1.156810e+04 1.096614e+00
1.156820e+04 1.090378e+00
1.156830e+04 1.084461e+00
1.156840e+04 1.078862e+00
1.156850e+04 1.073576e+00
1.156860e+04 1.068595e+00
1.156870e+04 1.063911e+00
1.156880e+04 1.059512e+00
1.156890e+04 1.055384e+00
1.156900e+04 1.051513e+00
1.156910e+04 1.047881e+00
1.156920e+04 1.044471e+00
1.156930e+04 1.041261e+00
1.156940e+04 1.038232e+00
1.156950e+04 1.035363e+00
1.156960e+04 1.032630e+00
1.156970e+04 1.030013e+00
1.156980e+04 1.027490e+00
1.156990e+04 1.025039e+00
1.157000e+04 1.022640e+00
1.157010e+04 1.020276e+00
1.157020e+04 1.017930e+00
1.157030e+04 1.015587e+00
1.157040e+04 1.013236e+00
1.157050e+04 1.010867e+00
1.157060e+04 1.008477e+00
1.157070e+04 1.006060e+00
1.157080e+04 1.003619e+00
1.157090e+04 1.001156e+00
1.157100e+04 9.986791e-01
1.157110e+04 9.961961e-01
1.157120e+04 9.937192e-01
1.157130e+04 9.912620e-01
1.157140e+04 9.888402e-01
1.157150e+04 9.864703e-01
1.157160e+04 9.841702e-01
1.157170e+04 9.819577e-01
1.157180e+04 9.798512e-01
1.157190e+04 9.778685e-01
1.157200e+04 9.760270e-01
1.157210e+04 9.743429e-01
1.157220e+04 9.728315e-01
1.157230e+04 9.715065e-01
1.157240e+04 9.703801e-01
1.157250e+04 9.694627e-01
1.157260e+04 9.687628e-01
1.157270e+04 9.682872e-01
1.157280e+04 9.680405e-01
1.157290e+04 9.680252e-01
1.157300e+04 9.682422e-01
1.157310e+04 9.686900e-01
1.157320e+04 9.693653e-01
1.157330e+04 9.702631e-01
1.157340e+04 9.713761e-01
1.157350e+04 9.726959e-01
1.157360e+04 9.742120e-01
1.157370e+04 9.759127e-01
1.157380e+04 9.777847e-01
1.157390e+04 9.798139e-01
1.157400e+04 9.819847e-01
1.157410e+04 9.842810e-01
1.157420e+04 9.866858e-01
1.157430e+04 9.891818e-01
1.157440e+04 9.917512e-01
1.157450e+04 9.943762e-01
1.157460e+04 9.970390e-01
1.157470e+04 9.997220e-01
1.157480e+04 1.002408e+00
1.157490e+04 1.005080e+00
1.157500e+04 1.007722e+00
1.157510e+04 1.010319e+00
1.157520e+04 1.012855e+00
1.157530e+04 1.015317e+00
1.157540e+04 1.017693e+00
1.157550e+04 1.019969e+00
1.157560e+04 1.022136e+00
1.157570e+04 1.024181e+00
1.157580e+04 1.026098e+00
1.157590e+04 1.027876e+00
1.157600e+04 1.029508e+00
1.157610e+04 1.030988e+00
1.157620e+04 1.032309e+00
1.157630e+04 1.033467e+00
1.157640e+04 1.034455e+00
1.157650e+04 1.035272e+00
1.157660e+04 1.035912e+00
1.157670e+04 1.036373e+00
1.157680e+04 1.036654e+00
1.157690e+04 1.036751e+00
1.157700e+04 1.036664e+00
1.157710e+04 1.036393e+00
1.157720e+04 1.035936e+00
1.157730e+04 1.035293e+00
1.157740e+04 1.034467e+00
1.157750e+04 1.033457e+00
1.157760e+04 1.032266e+00
1.157770e+04 1.030896e+00
1.157780e+04 1.029350e+00
1.157790e+04 1.027632e+00
1.157800e+04 1.025746e+00
1.157810e+04 1.023697e+00
1.157820e+04 1.021492e+00
1.157830e+04 1.019136e+00
1.157840e+04 1.016638e+00
1.157850e+04 1.014004e+00
1.157860e+04 1.011244e+00
1.157870e+04 1.008367e+00
1.157880e+04 1.005383e+00
1.157890e+04 1.002302e+00
1.157900e+04 9.991348e-01
1.157910e+04 9.958926e-01
1.157920e+04 9.925868e-01
1.157930e+04 9.892292e-01
1.157940e+04 9.858315e-01
1.157950e+04 9.824057e-01
1.157960e+04 9.789637e-01
1.157970e+04 9.755172e-01
1.157980e+04 9.720778e-01
1.157990e+04 9.686569e-01
1.158000e+04 9.652656e-01
1.158010e+04 9.619146e-01
1.158020e+04 9.586141e-01
1.158030e+04 9.553738e-01
1.158040e+04 9.522028e-01
1.158050e+04 9.491096e-01
1.158060e+04 9.461020e-01
1.158070e+04 9.431870e-01
1.158080e+04 9.403708e-01
1.158090e+04 9.376589e-01
1.158100e+04 9.350558e-01
1.158110e+04 9.325653e-01
1.158120e+04 9.301902e-01
1.158130e+04 9.279326e-01
1.158140e+04 9.257937e-01
1.158150e+04 9.237740e-01
1.158160e+04 9.218732e-01
1.158170e+04 9.200904e-01
1.158180e+04 9.184239e-01
1.158190e+04 9.168716e-01
1.158200e+04 9.154310e-01
1.158210e+04 9.140989e-01
1.158220e+04 9.128720e-01
1.158230e+04 9.117467e-01
1.158240e+04 9.107192e-01
1.158250e+04 9.097858e-01
1.158260e+04 9.089425e-01
1.158270e+04 9.081855e-01
1.158280e+04 9.075113e-01
1.158290e+04 9.069162e-01
1.158300e+04 9.063971e-01
1.158310e+04 9.059509e-01
1.158320e+04 9.055751e-01
1.158330e+04 9.052674e-01
1.158340e+04 9.050257e-01
1.158350e+04 9.048485e-01
1.158360e+04 9.047345e-01
1.158370e+04 9.046828e-01
1.158380e+04 9.046930e-01
1.158390e+04 9.047648e-01
1.158400e+04 9.048981e-01
1.158410e+04 9.050933e-01
1.158420e+04 9.053508e-01
1.158430e+04 9.056712e-01
1.158440e+04 9.060555e-01
1.158450e+04 9.065042e-01
1.158460e+04 9.070185e-01
1.158470e+04 9.075991e-01
1.158480e+04 9.082469e-01
1.158490e+04 9.089627e-01
1.158500e+04 9.097472e-01
1.158510e+04 9.106011e-01
1.158520e+04 9.115248e-01
1.158530e+04 9.125186e-01
1.158540e+04 9.135827e-01
1.158550e+04 9.147172e-01
1.158560e+04 9.159219e-01
1.158570e+04 9.171966e-01
1.158580e+04 9.185408e-01
1.158590e+04 9.199540e-01
1.158600e+04 9.214356e-01
1.158610e+04 9.229847e-01
1.158620e+04 9.246006e-01
1.158630e+04 9.262821e-01
1.158640e+04 9.280283e-01
1.158650e+04 9.298380e-01
1.158660e+04 9.317101e-01
1.158670e+04 9.336432e-01
1.158680e+04 9.356359e-01
1.158690e+04 9.376870e-01
1.158700e+04 9.397947e-01
1.158710e+04 9.419577e-01
1.158720e+04 9.441740e-01
1.158730e+04 9.464420e-01
1.158740e+04 9.487595e-01
1.158750e+04 9.511246e-01
1.158760e+04 9.535348e-01
1.158770e+04 9.559878e-01
1.158780e+04 9.584808e-01
1.158790e+04 9.610109e-01
1.158800e+04 9.635749e-01
1.158810e+04 9.661695e-01
1.158820e+04 9.687909e-01
1.158830e+04 9.714352e-01
1.158840e+04 9.740983e-01
1.158850e+04 9.767756e-01
1.158860e+04 9.794623e-01
1.158870e+04 9.821535e-01
1.158880e+04 9.848440e-01
1.158890e+04 9.875281e-01
1.158900e+04 9.902002e-01
1.158910e+04 9.928545e-01
1.158920e+04 9.954848e-01
1.158930e+04 9.980850e-01
1.158940e+04 1.000649e+00
1.158950e+04 1.003170e+00
1.158960e+04 1.005642e+00
1.158970e+04 1.008059e+00
1.158980e+04 1.010414e+00
1.158990e+04 1.012702e+00
1.159000e+04 1.014917e+00
1.159010e+04 1.017052e+00
1.159020e+04 1.019103e+00
1.159030e+04 1.021064e+00
1.159040e+04 1.022930e+00
1.159050e+04 1.024698e+00
1.159060e+04 1.026364e+00
1.159070e+04 1.027923e+00
1.159080e+04 1.029374e+00
1.159090e+04 1.030713e+00
1.159100e+04 1.031938e+00
1.159110e+04 1.033049e+00
1.159120e+04 1.034044e+00
1.159130e+04 1.034923e+00
1.159140e+04 1.035686e+00
1.159150e+04 1.036334e+00
1.159160e+04 1.036869e+00
1.159170e+04 1.037292e+00
1.159180e+04 1.037605e+00
1.159190e+04 1.037811e+00
1.159200e+04 1.037913e+00
1.159210e+04 1.037914e+00
1.159220e+04 1.037819e+00
1.159230e+04 1.037632e+00
1.159240e+04 1.037356e+00
1.159250e+04 1.036996e+00
1.159260e+04 1.036557e+00
1.159270e+04 1.036044e+00
1.159280e+04 1.035462e+00
1.159290e+04 1.034815e+00
1.159300e+04 1.034109e+00
1.159310e+04 1.033349e+00
1.159320e+04 1.032540e+00
1.159330e+04 1.031686e+00
1.159340e+04 1.030792e+00
1.159350e+04 1.029864e+00
1.159360e+04 1.028905e+00
1.159370e+04 1.027919e+00
1.159380e+04 1.026912e+00
1.159390e+04 1.025887e+00
1.159400e+04 1.024847e+00
1.159450e+04 1.019556e+00
1.159500e+04 1.014370e+00
1.159550e+04 1.009564e+00
1.159600e+04 1.005323e+00
1.159650e+04 1.001762e+00
1.159700e+04 9.989288e-01
1.159750e+04 9.968014e-01
1.159800e+04 9.952810e-01
1.159850e+04 9.941984e-01
1.159900e+04 9.933347e-01
1.159950e+04 9.924550e-01
1.160000e+04 9.913510e-01
1.160050e+04 9.898788e-01
1.160100e+04 9.879854e-01
1.160150e+04 9.857164e-01
1.160200e+04 9.832056e-01
1.160250e+04 9.806498e-01
1.160300e+04 9.782778e-01
1.160350e+04 9.763173e-01
1.160400e+04 9.749694e-01
1.160450e+04 9.743897e-01
1.160500e+04 9.746798e-01
1.160550e+04 9.758864e-01
1.160600e+04 9.780071e-01
1.160650e+04 9.810011e-01
1.160700e+04 9.848006e-01
1.160750e+04 9.893231e-01
1.160800e+04 9.944799e-01
1.160850e+04 1.000182e+00
1.160900e+04 1.006341e+00
1.160950e+04 1.012873e+00
1.161000e+04 1.019693e+00
1.161050e+04 1.026715e+00
1.161100e+04 1.033850e+00
1.161150e+04 1.041007e+00
1.161200e+04 1.048084e+00
1.161250e+04 1.054971e+00
1.161300e+04 1.061550e+00
1.161350e+04 1.067693e+00
1.161400e+04 1.073270e+00
1.161450e+04 1.078158e+00
1.161500e+04 1.082253e+00
1.161550e+04 1.085482e+00
1.161600e+04 1.087818e+00
1.161650e+04 1.089280e+00
1.161700e+04 1.089937e+00
1.161750e+04 1.089900e+00
1.161800e+04 1.089301e+00
1.161850e+04 1.088285e+00
1.161900e+04 1.086987e+00
1.161950e+04 1.085521e+00
1.162000e+04 1.083974e+00
1.162050e+04 1.082404e+00
1.162100e+04 1.080844e+00
1.162150e+04 1.079305e+00
1.162200e+04 1.077791e+00
