# energy(eV) normalized_intensity
1.141400e+04 6.393448e-04
1.141450e+04 6.214877e-04
1.141500e+04 6.037792e-04
1.141550e+04 5.862202e-04
1.141600e+04 5.688127e-04
1.141650e+04 5.515585e-04
1.141700e+04 5.344588e-04
1.141750e+04 5.175154e-04
1.141800e+04 5.007299e-04
1.141850e+04 4.841043e-04
1.141900e+04 4.676398e-04
1.141950e+04 4.513383e-04
1.142000e+04 4.352020e-04
1.142050e+04 4.192322e-04
1.142100e+04 4.034305e-04
1.142150e+04 3.877994e-04
1.142200e+04 3.723405e-04
1.142250e+04 3.570553e-04
1.142300e+04 3.419463e-04
1.142350e+04 3.270152e-04
1.142400e+04 3.122637e-04
1.142450e+04 2.976942e-04
1.142500e+04 2.833086e-04
1.142550e+04 2.691089e-04
1.142600e+04 2.550972e-04
1.142650e+04 2.412756e-04
1.142700e+04 2.276463e-04
1.142750e+04 2.142115e-04
1.142800e+04 2.009734e-04
1.142850e+04 1.879345e-04
1.142900e+04 1.750966e-04
1.142950e+04 1.624623e-04
1.143000e+04 1.500342e-04
1.143050e+04 1.378141e-04
1.143100e+04 1.258050e-04
1.143150e+04 1.140090e-04
1.143200e+04 1.024289e-04
1.143250e+04 9.106702e-05
1.143300e+04 7.992619e-05
1.143350e+04 6.900870e-05
1.143400e+04 5.831770e-05
1.143450e+04 4.785518e-05
1.143500e+04 3.762458e-05
1.143550e+04 2.762847e-05
1.143600e+04 1.786969e-05
1.143650e+04 8.351114e-06
1.143700e+04 -9.241260e-07
1.143750e+04 -9.953457e-06
1.143800e+04 -1.873345e-05
1.143850e+04 -2.726125e-05
1.143900e+04 -3.553343e-05
1.143950e+04 -4.354714e-05
1.144000e+04 -5.129893e-05
1.144050e+04 -5.878569e-05
1.144100e+04 -6.600368e-05
1.144150e+04 -7.294977e-05
1.144200e+04 -7.962054e-05
1.144250e+04 -8.601255e-05
1.144300e+04 -9.212180e-05
1.144350e+04 -9.794487e-05
1.144400e+04 -1.034780e-04
1.144450e+04 -1.087176e-04
1.144500e+04 -1.136596e-04
1.144550e+04 -1.182999e-04
1.144600e+04 -1.226352e-04
1.144650e+04 -1.266607e-04
1.144700e+04 -1.303728e-04
1.144750e+04 -1.337670e-04
1.144800e+04 -1.368394e-04
1.144850e+04 -1.395850e-04
1.144900e+04 -1.420001e-04
1.144950e+04 -1.440797e-04
1.145000e+04 -1.458191e-04
1.145050e+04 -1.472143e-04
1.145100e+04 -1.482599e-04
1.145150e+04 -1.489514e-04
1.145200e+04 -1.492836e-04
1.145250e+04 -1.492516e-04
1.145300e+04 -1.488506e-04
1.145350e+04 -1.480746e-04
1.145400e+04 -1.469190e-04
1.145450e+04 -1.453784e-04
1.145500e+04 -1.434465e-04
1.145550e+04 -1.411184e-04
1.145600e+04 -1.383882e-04
1.145650e+04 -1.352502e-04
1.145700e+04 -1.316980e-04
1.145750e+04 -1.277260e-04
1.145800e+04 -1.233275e-04
1.145850e+04 -1.184966e-04
1.145900e+04 -1.132264e-04
1.145950e+04 -1.075110e-04
1.146000e+04 -1.013434e-04
1.146050e+04 -9.471659e-05
1.146100e+04 -8.762362e-05
1.146150e+04 -8.005739e-05
1.146200e+04 -7.201076e-05
1.146250e+04 -6.347628e-05
1.146300e+04 -5.444655e-05
1.146350e+04 -4.491357e-05
1.146400e+04 -3.486961e-05
1.146450e+04 -2.430641e-05
1.146500e+04 -1.321595e-05
1.146550e+04 -1.589963e-06
1.146600e+04 1.058041e-05
1.146650e+04 2.330374e-05
1.146700e+04 3.658917e-05
1.146750e+04 5.044554e-05
1.146800e+04 6.488229e-05
1.146850e+04 7.990913e-05
1.146900e+04 9.553547e-05
1.146950e+04 1.117716e-04
1.147000e+04 1.286275e-04
1.147050e+04 1.461136e-04
1.147100e+04 1.642405e-04
1.147150e+04 1.830192e-04
1.147200e+04 2.024608e-04
1.147250e+04 2.225768e-04
1.147300e+04 2.433789e-04
1.147350e+04 2.648784e-04
1.147400e+04 2.870882e-04
1.147450e+04 3.100204e-04
1.147500e+04 3.336878e-04
1.147550e+04 3.581038e-04
1.147600e+04 3.832812e-04
1.147650e+04 4.092341e-04
1.147700e+04 4.359764e-04
1.147750e+04 4.635225e-04
1.147800e+04 4.918875e-04
1.147850e+04 5.210856e-04
1.147900e+04 5.511331e-04
1.147950e+04 5.820455e-04
1.148000e+04 6.138387e-04
1.148050e+04 6.465300e-04
1.148100e+04 6.801360e-04
1.148150e+04 7.146744e-04
1.148200e+04 7.501630e-04
1.148250e+04 7.866201e-04
1.148300e+04 8.240649e-04
1.148350e+04 8.625165e-04
1.148400e+04 9.019949e-04
1.148450e+04 9.425205e-04
1.148500e+04 9.841142e-04
1.148550e+04 1.026798e-03
1.148600e+04 1.070593e-03
1.148650e+04 1.115522e-03
1.148700e+04 1.161609e-03
1.148750e+04 1.208878e-03
1.148800e+04 1.257353e-03
1.148850e+04 1.307059e-03
1.148900e+04 1.358023e-03
1.148950e+04 1.410271e-03
1.149000e+04 1.463831e-03
1.149050e+04 1.518731e-03
1.149100e+04 1.575000e-03
1.149150e+04 1.632668e-03
1.149200e+04 1.691766e-03
1.149250e+04 1.752325e-03
1.149300e+04 1.814379e-03
1.149350e+04 1.877960e-03
1.149400e+04 1.943104e-03
1.149450e+04 2.009847e-03
1.149500e+04 2.078224e-03
1.149550e+04 2.148275e-03
1.149600e+04 2.220037e-03
1.149650e+04 2.293552e-03
1.149700e+04 2.368862e-03
1.149750e+04 2.446008e-03
1.149800e+04 2.525035e-03
1.149850e+04 2.605989e-03
1.149900e+04 2.688918e-03
1.149950e+04 2.773870e-03
1.150000e+04 2.860895e-03
1.150050e+04 2.950045e-03
1.150100e+04 3.041375e-03
1.150150e+04 3.134940e-03
1.150200e+04 3.230797e-03
1.150250e+04 3.329006e-03
1.150300e+04 3.429629e-03
1.150350e+04 3.532729e-03
1.150400e+04 3.638372e-03
1.150450e+04 3.746627e-03
1.150500e+04 3.857565e-03
1.150550e+04 3.971259e-03
1.150600e+04 4.087784e-03
1.150650e+04 4.207220e-03
1.150700e+04 4.329649e-03
1.150750e+04 4.455155e-03
1.150800e+04 4.583827e-03
1.150850e+04 4.715757e-03
1.150900e+04 4.851038e-03
1.150950e+04 4.989771e-03
1.151000e+04 5.132057e-03
1.151050e+04 5.278003e-03
1.151100e+04 5.427722e-03
1.151150e+04 5.581326e-03
1.151200e+04 5.738938e-03
1.151250e+04 5.900683e-03
1.151300e+04 6.066691e-03
1.151350e+04 6.237097e-03
1.151400e+04 6.412045e-03
1.151450e+04 6.591681e-03
1.151500e+04 6.776161e-03
1.151550e+04 6.965645e-03
1.151600e+04 7.160301e-03
1.151650e+04 7.360307e-03
1.151700e+04 7.565845e-03
1.151750e+04 7.777108e-03
1.151800e+04 7.994298e-03
1.151850e+04 8.217626e-03
1.151900e+04 8.447311e-03
1.151950e+04 8.683587e-03
1.152000e+04 8.926696e-03
1.152050e+04 9.176893e-03
1.152100e+04 9.434445e-03
1.152150e+04 9.699634e-03
1.152200e+04 9.972755e-03
1.152250e+04 1.025412e-02
1.152300e+04 1.054405e-02
1.152350e+04 1.084290e-02
1.152400e+04 1.115102e-02
1.152450e+04 1.146881e-02
1.152500e+04 1.179666e-02
1.152550e+04 1.213500e-02
1.152600e+04 1.248428e-02
1.152650e+04 1.284498e-02
1.152700e+04 1.321760e-02
1.152750e+04 1.360268e-02
1.152800e+04 1.400078e-02
1.152850e+04 1.441251e-02
1.152900e+04 1.483849e-02
1.152950e+04 1.527942e-02
1.153000e+04 1.573600e-02
1.153050e+04 1.620902e-02
1.153100e+04 1.669927e-02
1.153150e+04 1.720765e-02
1.153200e+04 1.773507e-02
1.153250e+04 1.828254e-02
1.153300e+04 1.885111e-02
1.153350e+04 1.944194e-02
1.153400e+04 2.005623e-02
1.153450e+04 2.069531e-02
1.153500e+04 2.136058e-02
1.153550e+04 2.205357e-02
1.153600e+04 2.277590e-02
1.153650e+04 2.352935e-02
1.153700e+04 2.431582e-02
1.153750e+04 2.513737e-02
1.153800e+04 2.599625e-02
1.153850e+04 2.689486e-02
1.153900e+04 2.783586e-02
1.153950e+04 2.882212e-02
1.154000e+04 2.985676e-02
1.154050e+04 3.094320e-02
1.154100e+04 3.208519e-02
1.154150e+04 3.328683e-02
1.154200e+04 3.455263e-02
1.154250e+04 3.588756e-02
1.154300e+04 3.729710e-02
1.154350e+04 3.878730e-02
1.154400e+04 4.036488e-02
1.154450e+04 4.203730e-02
1.154500e+04 4.381288e-02
1.154550e+04 4.570091e-02
1.154600e+04 4.771179e-02
1.154650e+04 4.985719e-02
1.154700e+04 5.215030e-02
1.154750e+04 5.460601e-02
1.154800e+04 5.724121e-02
1.154850e+04 6.007513e-02
1.154900e+04 6.312975e-02
1.154950e+04 6.643029e-02
1.155000e+04 7.000582e-02
1.155050e+04 7.388996e-02
1.155100e+04 7.812181e-02
1.155150e+04 8.274708e-02
1.155200e+04 8.781942e-02
1.155250e+04 9.340222e-02
1.155300e+04 9.957081e-02
1.155350e+04 1.064152e-01
1.155400e+04 1.140437e-01
1.155410e+04 1.156746e-01
1.155420e+04 1.173432e-01
1.155430e+04 1.190507e-01
1.155440e+04 1.207984e-01
1.155450e+04 1.225876e-01
1.155460e+04 1.244197e-01
1.155470e+04 1.262962e-01
1.155480e+04 1.282185e-01
1.155490e+04 1.301883e-01
1.155500e+04 1.322070e-01
1.155510e+04 1.342766e-01
1.155520e+04 1.363986e-01
1.155530e+04 1.385751e-01
1.155540e+04 1.408078e-01
1.155550e+04 1.430989e-01
1.155560e+04 1.454505e-01
1.155570e+04 1.478648e-01
1.155580e+04 1.503440e-01
1.155590e+04 1.528907e-01
1.155600e+04 1.555074e-01
1.155610e+04 1.581966e-01
1.155620e+04 1.609613e-01
1.155630e+04 1.638042e-01
1.155640e+04 1.667285e-01
1.155650e+04 1.697374e-01
1.155660e+04 1.728341e-01
1.155670e+04 1.760223e-01
1.155680e+04 1.793056e-01
1.155690e+04 1.826879e-01
1.155700e+04 1.861732e-01
1.155710e+04 1.897658e-01
1.155720e+04 1.934702e-01
1.155730e+04 1.972912e-01
1.155740e+04 2.012336e-01
1.155750e+04 2.053027e-01
1.155760e+04 2.095040e-01
1.155770e+04 2.138431e-01
1.155780e+04 2.183263e-01
1.155790e+04 2.229598e-01
1.155800e+04 2.277504e-01
1.155810e+04 2.327051e-01
1.155820e+04 2.378315e-01
1.155830e+04 2.431372e-01
1.155840e+04 2.486306e-01
1.155850e+04 2.543204e-01
1.155860e+04 2.602157e-01
1.155870e+04 2.663261e-01
1.155880e+04 2.726618e-01
1.155890e+04 2.792335e-01
1.155900e+04 2.860525e-01
1.155910e+04 2.931304e-01
1.155920e+04 3.004798e-01
1.155930e+04 3.081138e-01
1.155940e+04 3.160460e-01
1.155950e+04 3.242910e-01
1.155960e+04 3.328637e-01
1.155970e+04 3.417801e-01
1.155980e+04 3.510568e-01
1.155990e+04 3.607110e-01
1.156000e+04 3.707608e-01
1.156010e+04 3.812250e-01
1.156020e+04 3.921232e-01
1.156030e+04 4.034755e-01
1.156040e+04 4.153029e-01
1.156050e+04 4.276269e-01
1.156060e+04 4.404694e-01
1.156070e+04 4.538529e-01
1.156080e+04 4.678000e-01
1.156090e+04 4.823334e-01
1.156100e+04 4.974757e-01
1.156110e+04 5.132494e-01
1.156120e+04 5.296757e-01
1.156130e+04 5.467754e-01
1.156140e+04 5.645672e-01
1.156150e+04 5.830683e-01
1.156160e+04 6.022926e-01
1.156170e+04 6.222514e-01
1.156180e+04 6.429513e-01
1.156190e+04 6.643942e-01
1.156200e+04 6.865761e-01
1.156210e+04 7.094859e-01
1.156220e+04 7.331044e-01
1.156230e+04 7.574034e-01
1.156240e+04 7.823443e-01
1.156250e+04 8.078768e-01
1.156260e+04 8.339386e-01
1.156270e+04 8.604538e-01
1.156280e+04 8.873326e-01
1.156290e+04 9.144711e-01
1.156300e+04 9.417513e-01
1.156310e+04 9.690417e-01
1.156320e+04 9.961984e-01
1.156330e+04 1.023067e+00
1.156340e+04 1.049485e+00
1.156350e+04 1.075284e+00
1.156360e+04 1.100295e+00
1.156370e+04 1.124351e+00
1.156380e+04 1.147289e+00
1.156390e+04 1.168960e+00
1.156400e+04 1.189228e+00
1.156410e+04 1.207929e+00
1.156420e+04 1.224916e+00
1.156430e+04 1.240110e+00
1.156440e+04 1.253456e+00
1.156450e+04 1.264929e+00
1.156460e+04 1.274533e+00
1.156470e+04 1.282295e+00
1.156480e+04 1.288266e+00
1.156490e+04 1.292517e+00
1.156500e+04 1.295133e+00
1.156510e+04 1.296214e+00
1.156520e+04 1.295866e+00
1.156530e+04 1.294204e+00
1.156540e+04 1.291343e+00
1.156550e+04 1.287399e+00
1.156560e+04 1.282488e+00
1.156570e+04 1.276723e+00
1.156580e+04 1.270211e+00
1.156590e+04 1.263056e+00
1.156600e+04 1.255356e+00
1.156610e+04 1.247203e+00
1.156620e+04 1.238683e+00
1.156630e+04 1.229878e+00
1.156640e+04 1.220861e+00
1.156650e+04 1.211701e+00
1.156660e+04 1.202462e+00
1.156670e+04 1.193200e+00
1.156680e+04 1.183968e+00
1.156690e+04 1.174812e+00
1.156700e+04 1.165775e+00
1.156710e+04 1.156892e+00
1.156720e+04 1.148196e+00
1.156730e+04 1.139714e+00
1.156740e+04 1.131470e+00
1.156750e+04 1.123483e+00
1.156760e+04 1.115767e+00
1.156770e+04 1.108335e+00
1.156780e+04 1.101195e+00
1.156790e+04 1.094351e+00
1.156800e+04 1.087806e+00
1.156810e+04 1.081558e+00
1.156820e+04 1.075605e+00
1.156830e+04 1.069940e+00
1.156840e+04 1.064555e+00
1.156850e+04 1.059442e+00
1.156860e+04 1.054588e+00
1.156870e+04 1.049981e+00
1.156880e+04 1.045608e+00
1.156890e+04 1.041452e+00
1.156900e+04 1.037499e+00
1.156910e+04 1.033733e+00
1.156920e+04 1.030139e+00
1.156930e+04 1.026700e+00
1.156940e+04 1.023402e+00
1.156950e+04 1.020230e+00
1.156960e+04 1.017171e+00
1.156970e+04 1.014211e+00
1.156980e+04 1.011341e+00
1.156990e+04 1.008551e+00
1.157000e+04 1.005832e+00
1.157010e+04 1.003179e+00
1.157020e+04 1.000586e+00
1.157030e+04 9.980515e-01
1.157040e+04 9.955730e-01
1.157050e+04 9.931508e-01
1.157060e+04 9.907864e-01
1.157070e+04 9.884820e-01
1.157080e+04 9.862412e-01
1.157090e+04 9.840682e-01
1.157100e+04 9.819676e-01
1.157110e+04 9.799446e-01
1.157120e+04 9.780043e-01
1.157130e+04 9.761519e-01
1.157140e+04 9.743924e-01
1.157150e+04 9.727303e-01
1.157160e+04 9.711697e-01
1.157170e+04 9.697141e-01
1.157180e+04 9.683664e-01
1.157190e+04 9.671285e-01
1.157200e+04 9.660018e-01
1.157210e+04 9.649866e-01
1.157220e+04 9.640828e-01
1.157230e+04 9.632892e-01
1.157240e+04 9.626040e-01
1.157250e+04 9.620245e-01
1.157260e+04 9.615476e-01
1.157270e+04 9.611694e-01
1.157280e+04 9.608855e-01
1.157290e+04 9.606911e-01
1.157300e+04 9.605810e-01
1.157310e+04 9.605495e-01
1.157320e+04 9.605908e-01
1.157330e+04 9.606988e-01
1.157340e+04 9.608673e-01
1.157350e+04 9.610900e-01
1.157360e+04 9.613606e-01
1.157370e+04 9.616727e-01
1.157380e+04 9.620201e-01
1.157390e+04 9.623966e-01
1.157400e+04 9.627963e-01
1.157410e+04 9.632133e-01
1.157420e+04 9.636420e-01
1.157430e+04 9.640770e-01
1.157440e+04 9.645130e-01
1.157450e+04 9.649452e-01
1.157460e+04 9.653688e-01
1.157470e+04 9.657795e-01
1.157480e+04 9.661731e-01
1.157490e+04 9.665458e-01
1.157500e+04 9.668939e-01
1.157510e+04 9.672141e-01
1.157520e+04 9.675034e-01
1.157530e+04 9.677588e-01
1.157540e+04 9.679780e-01
1.157550e+04 9.681584e-01
1.157560e+04 9.682982e-01
1.157570e+04 9.683954e-01
1.157580e+04 9.684484e-01
1.157590e+04 9.684559e-01
1.157600e+04 9.684166e-01
1.157610e+04 9.683296e-01
1.157620e+04 9.681941e-01
1.157630e+04 9.680094e-01
1.157640e+04 9.677753e-01
1.157650e+04 9.674913e-01
1.157660e+04 9.671576e-01
1.157670e+04 9.667742e-01
1.157680e+04 9.663413e-01
1.157690e+04 9.658594e-01
1.157700e+04 9.653292e-01
1.157710e+04 9.647512e-01
1.157720e+04 9.641264e-01
1.157730e+04 9.634558e-01
1.157740e+04 9.627405e-01
1.157750e+04 9.619818e-01
1.157760e+04 9.611810e-01
1.157770e+04 9.603398e-01
1.157780e+04 9.594597e-01
1.157790e+04 9.585424e-01
1.157800e+04 9.575898e-01
1.157810e+04 9.566039e-01
1.157820e+04 9.555865e-01
1.157830e+04 9.545398e-01
1.157840e+04 9.534660e-01
1.157850e+04 9.523674e-01
1.157860e+04 9.512461e-01
1.157870e+04 9.501046e-01
1.157880e+04 9.489452e-01
1.157890e+04 9.477704e-01
1.157900e+04 9.465825e-01
1.157910e+04 9.453842e-01
1.157920e+04 9.441779e-01
1.157930e+04 9.429659e-01
1.157940e+04 9.417509e-01
1.157950e+04 9.405352e-01
1.157960e+04 9.393214e-01
1.157970e+04 9.381117e-01
1.157980e+04 9.369085e-01
1.157990e+04 9.357142e-01
1.158000e+04 9.345310e-01
1.158010e+04 9.333611e-01
1.158020e+04 9.322067e-01
1.158030e+04 9.310697e-01
1.158040e+04 9.299522e-01
1.158050e+04 9.288560e-01
1.158060e+04 9.277830e-01
1.158070e+04 9.267348e-01
1.158080e+04 9.257132e-01
1.158090e+04 9.247195e-01
1.158100e+04 9.237554e-01
1.158110e+04 9.228220e-01
1.158120e+04 9.219206e-01
1.158130e+04 9.210524e-01
1.158140e+04 9.202185e-01
1.158150e+04 9.194197e-01
1.158160e+04 9.186570e-01
1.158170e+04 9.179312e-01
1.158180e+04 9.172429e-01
1.158190e+04 9.165927e-01
1.158200e+04 9.159813e-01
1.158210e+04 9.154090e-01
1.158220e+04 9.148763e-01
1.158230e+04 9.143835e-01
1.158240e+04 9.139310e-01
1.158250e+04 9.135189e-01
1.158260e+04 9.131475e-01
1.158270e+04 9.128168e-01
1.158280e+04 9.125271e-01
1.158290e+04 9.122783e-01
1.158300e+04 9.120706e-01
1.158310e+04 9.119039e-01
1.158320e+04 9.117782e-01
1.158330e+04 9.116936e-01
1.158340e+04 9.116499e-01
1.158350e+04 9.116472e-01
1.158360e+04 9.116853e-01
1.158370e+04 9.117643e-01
1.158380e+04 9.118839e-01
1.158390e+04 9.120442e-01
1.158400e+04 9.122449e-01
1.158410e+04 9.124861e-01
1.158420e+04 9.127676e-01
1.158430e+04 9.130892e-01
1.158440e+04 9.134508e-01
1.158450e+04 9.138522e-01
1.158460e+04 9.142933e-01
1.158470e+04 9.147739e-01
1.158480e+04 9.152938e-01
1.158490e+04 9.158527e-01
1.158500e+04 9.164504e-01
1.158510e+04 9.170866e-01
1.158520e+04 9.177610e-01
1.158530e+04 9.184734e-01
1.158540e+04 9.192232e-01
1.158550e+04 9.200102e-01
1.158560e+04 9.208339e-01
1.158570e+04 9.216938e-01
1.158580e+04 9.225895e-01
1.158590e+04 9.235204e-01
1.158600e+04 9.244859e-01
1.158610e+04 9.254853e-01
1.158620e+04 9.265181e-01
1.158630e+04 9.275834e-01
1.158640e+04 9.286805e-01
1.158650e+04 9.298086e-01
1.158660e+04 9.309667e-01
1.158670e+04 9.321540e-01
1.158680e+04 9.333695e-01
1.158690e+04 9.346121e-01
1.158700e+04 9.358808e-01
1.158710e+04 9.371742e-01
1.158720e+04 9.384913e-01
1.158730e+04 9.398308e-01
1.158740e+04 9.411913e-01
1.158750e+04 9.425714e-01
1.158760e+04 9.439696e-01
1.158770e+04 9.453844e-01
1.158780e+04 9.468142e-01
1.158790e+04 9.482573e-01
1.158800e+04 9.497121e-01
1.158810e+04 9.511768e-01
1.158820e+04 9.526495e-01
1.158830e+04 9.541283e-01
1.158840e+04 9.556114e-01
1.158850e+04 9.570966e-01
1.158860e+04 9.585821e-01
1.158870e+04 9.600656e-01
1.158880e+04 9.615452e-01
1.158890e+04 9.630186e-01
1.158900e+04 9.644838e-01
1.158910e+04 9.659384e-01
1.158920e+04 9.673804e-01
1.158930e+04 9.688075e-01
1.158940e+04 9.702175e-01
1.158950e+04 9.716083e-01
1.158960e+04 9.729776e-01
1.158970e+04 9.743234e-01
1.158980e+04 9.756436e-01
1.158990e+04 9.769360e-01
1.159000e+04 9.781988e-01
1.159010e+04 9.794300e-01
1.159020e+04 9.806277e-01
1.159030e+04 9.817902e-01
1.159040e+04 9.829158e-01
1.159050e+04 9.840030e-01
1.159060e+04 9.850502e-01
1.159070e+04 9.860561e-01
1.159080e+04 9.870194e-01
1.159090e+04 9.879392e-01
1.159100e+04 9.888143e-01
1.159110e+04 9.896441e-01
1.159120e+04 9.904276e-01
1.159130e+04 9.911645e-01
1.159140e+04 9.918543e-01
1.159150e+04 9.924967e-01
1.159160e+04 9.930916e-01
1.159170e+04 9.936391e-01
1.159180e+04 9.941392e-01
1.159190e+04 9.945924e-01
1.159200e+04 9.949989e-01
1.159210e+04 9.953595e-01
1.159220e+04 9.956748e-01
1.159230e+04 9.959456e-01
1.159240e+04 9.961728e-01
1.159250e+04 9.963575e-01
1.159260e+04 9.965007e-01
1.159270e+04 9.966038e-01
1.159280e+04 9.966680e-01
1.159290e+04 9.966947e-01
1.159300e+04 9.966853e-01
1.159310e+04 9.966414e-01
1.159320e+04 9.965645e-01
1.159330e+04 9.964561e-01
1.159340e+04 9.963180e-01
1.159350e+04 9.961518e-01
1.159360e+04 9.959590e-01
1.159370e+04 9.957415e-01
1.159380e+04 9.955009e-01
1.159390e+04 9.952389e-01
1.159400e+04 9.949571e-01
1.159450e+04 9.933085e-01
1.159500e+04 9.914010e-01
1.159550e+04 9.894044e-01
1.159600e+04 9.874551e-01
1.159650e+04 9.856530e-01
1.159700e+04 9.840591e-01
1.159750e+04 9.826957e-01
1.159800e+04 9.815484e-01
1.159850e+04 9.805720e-01
1.159900e+04 9.796994e-01
1.159950e+04 9.788552e-01
1.160000e+04 9.779708e-01
1.160050e+04 9.769982e-01
1.160100e+04 9.759217e-01
1.160150e+04 9.747632e-01
1.160200e+04 9.735811e-01
1.160250e+04 9.724644e-01
1.160300e+04 9.715213e-01
1.160350e+04 9.708669e-01
1.160400e+04 9.706106e-01
1.160450e+04 9.708461e-01
1.160500e+04 9.716442e-01
1.160550e+04 9.730494e-01
1.160600e+04 9.750798e-01
1.160650e+04 9.777293e-01
1.160700e+04 9.809722e-01
1.160750e+04 9.847674e-01
1.160800e+04 9.890632e-01
1.160850e+04 9.938009e-01
1.160900e+04 9.989170e-01
1.160950e+04 1.004345e+00
1.161000e+04 1.010015e+00
1.161050e+04 1.015855e+00
1.161100e+04 1.021789e+00
1.161150e+04 1.027738e+00
1.161200e+04 1.033617e+00
1.161250e+04 1.039340e+00
1.161300e+04 1.044815e+00
1.161350e+04 1.049950e+00
1.161400e+04 1.054655e+00
1.161450e+04 1.058848e+00
1.161500e+04 1.062463e+00
1.161550e+04 1.065453e+00
1.161600e+04 1.067797e+00
1.161650e+04 1.069504e+00
1.161700e+04 1.070610e+00
1.161750e+04 1.071175e+00
1.161800e+04 1.071276e+00
1.161850e+04 1.070999e+00
1.161900e+04 1.070430e+00
1.161950e+04 1.069646e+00
1.162000e+04 1.068713e+00
1.162050e+04 1.067681e+00
1.162100e+04 1.066586e+00
1.162150e+04 1.065452e+00
1.162200e+04 1.064295e+00
