# energy(eV) normalized_intensity
1.141400e+04 6.395388e-04
1.141450e+04 6.216766e-04
1.141500e+04 6.039629e-04
1.141550e+04 5.863989e-04
1.141600e+04 5.689863e-04
1.141650e+04 5.517272e-04
1.141700e+04 5.346225e-04
1.141750e+04 5.176741e-04
1.141800e+04 5.008837e-04
1.141850e+04 4.842532e-04
1.141900e+04 4.677839e-04
1.141950e+04 4.514776e-04
1.142000e+04 4.353365e-04
1.142050e+04 4.193619e-04
1.142100e+04 4.035556e-04
1.142150e+04 3.879198e-04
1.142200e+04 3.724563e-04
1.142250e+04 3.571665e-04
1.142300e+04 3.420529e-04
1.142350e+04 3.271173e-04
1.142400e+04 3.123614e-04
1.142450e+04 2.977874e-04
1.142500e+04 2.833975e-04
1.142550e+04 2.691935e-04
1.142600e+04 2.551774e-04
1.142650e+04 2.413517e-04
1.142700e+04 2.277182e-04
1.142750e+04 2.142792e-04
1.142800e+04 2.010371e-04
1.142850e+04 1.879941e-04
1.142900e+04 1.751522e-04
1.142950e+04 1.625140e-04
1.143000e+04 1.500820e-04
1.143050e+04 1.378581e-04
1.143100e+04 1.258452e-04
1.143150e+04 1.140455e-04
1.143200e+04 1.024617e-04
1.143250e+04 9.109624e-05
1.143300e+04 7.995187e-05
1.143350e+04 6.903090e-05
1.143400e+04 5.833649e-05
1.143450e+04 4.787063e-05
1.143500e+04 3.763674e-05
1.143550e+04 2.763741e-05
1.143600e+04 1.787548e-05
1.143650e+04 8.353825e-06
1.143700e+04 -9.244264e-07
1.143750e+04 -9.956697e-06
1.143800e+04 -1.873956e-05
1.143850e+04 -2.727015e-05
1.143900e+04 -3.554505e-05
1.143950e+04 -4.356139e-05
1.144000e+04 -5.131575e-05
1.144050e+04 -5.880499e-05
1.144100e+04 -6.602539e-05
1.144150e+04 -7.297380e-05
1.144200e+04 -7.964680e-05
1.144250e+04 -8.604095e-05
1.144300e+04 -9.215227e-05
1.144350e+04 -9.797731e-05
1.144400e+04 -1.035124e-04
1.144450e+04 -1.087537e-04
1.144500e+04 -1.136974e-04
1.144550e+04 -1.183393e-04
1.144600e+04 -1.226762e-04
1.144650e+04 -1.267030e-04
1.144700e+04 -1.304164e-04
1.144750e+04 -1.338118e-04
1.144800e+04 -1.368853e-04
1.144850e+04 -1.396319e-04
1.144900e+04 -1.420479e-04
1.144950e+04 -1.441282e-04
1.145000e+04 -1.458682e-04
1.145050e+04 -1.472640e-04
1.145100e+04 -1.483101e-04
1.145150e+04 -1.490018e-04
1.145200e+04 -1.493342e-04
1.145250e+04 -1.493023e-04
1.145300e+04 -1.489012e-04
1.145350e+04 -1.481250e-04
1.145400e+04 -1.469691e-04
1.145450e+04 -1.454280e-04
1.145500e+04 -1.434955e-04
1.145550e+04 -1.411667e-04
1.145600e+04 -1.384357e-04
1.145650e+04 -1.352966e-04
1.145700e+04 -1.317433e-04
1.145750e+04 -1.277699e-04
1.145800e+04 -1.233700e-04
1.145850e+04 -1.185375e-04
1.145900e+04 -1.132656e-04
1.145950e+04 -1.075482e-04
1.146000e+04 -1.013786e-04
1.146050e+04 -9.474947e-05
1.146100e+04 -8.765409e-05
1.146150e+04 -8.008526e-05
1.146200e+04 -7.203586e-05
1.146250e+04 -6.349844e-05
1.146300e+04 -5.446559e-05
1.146350e+04 -4.492929e-05
1.146400e+04 -3.488183e-05
1.146450e+04 -2.431494e-05
1.146500e+04 -1.322059e-05
1.146550e+04 -1.590522e-06
1.146600e+04 1.058414e-05
1.146650e+04 2.331196e-05
1.146700e+04 3.660209e-05
1.146750e+04 5.046339e-05
1.146800e+04 6.490527e-05
1.146850e+04 7.993747e-05
1.146900e+04 9.556940e-05
1.146950e+04 1.118114e-04
1.147000e+04 1.286734e-04
1.147050e+04 1.461657e-04
1.147100e+04 1.642991e-04
1.147150e+04 1.830846e-04
1.147200e+04 2.025333e-04
1.147250e+04 2.226566e-04
1.147300e+04 2.434662e-04
1.147350e+04 2.649736e-04
1.147400e+04 2.871915e-04
1.147450e+04 3.101321e-04
1.147500e+04 3.338082e-04
1.147550e+04 3.582331e-04
1.147600e+04 3.834198e-04
1.147650e+04 4.093823e-04
1.147700e+04 4.361346e-04
1.147750e+04 4.636908e-04
1.147800e+04 4.920663e-04
1.147850e+04 5.212753e-04
1.147900e+04 5.513340e-04
1.147950e+04 5.822580e-04
1.148000e+04 6.140631e-04
1.148050e+04 6.467666e-04
1.148100e+04 6.803853e-04
1.148150e+04 7.149366e-04
1.148200e+04 7.504386e-04
1.148250e+04 7.869095e-04
1.148300e+04 8.243684e-04
1.148350e+04 8.628346e-04
1.148400e+04 9.023280e-04
1.148450e+04 9.428690e-04
1.148500e+04 9.844785e-04
1.148550e+04 1.027178e-03
1.148600e+04 1.070990e-03
1.148650e+04 1.115936e-03
1.148700e+04 1.162041e-03
1.148750e+04 1.209328e-03
1.148800e+04 1.257822e-03
1.148850e+04 1.307547e-03
1.148900e+04 1.358531e-03
1.148950e+04 1.410799e-03
1.149000e+04 1.464380e-03
1.149050e+04 1.519301e-03
1.149100e+04 1.575592e-03
1.149150e+04 1.633282e-03
1.149200e+04 1.692403e-03
1.149250e+04 1.752986e-03
1.149300e+04 1.815064e-03
1.149350e+04 1.878671e-03
1.149400e+04 1.943840e-03
1.149450e+04 2.010609e-03
1.149500e+04 2.079013e-03
1.149550e+04 2.149091e-03
1.149600e+04 2.220882e-03
1.149650e+04 2.294426e-03
1.149700e+04 2.369765e-03
1.149750e+04 2.446942e-03
1.149800e+04 2.526001e-03
1.149850e+04 2.606987e-03
1.149900e+04 2.689949e-03
1.149950e+04 2.774934e-03
1.150000e+04 2.861994e-03
1.150050e+04 2.951180e-03
1.150100e+04 3.042547e-03
1.150150e+04 3.136149e-03
1.150200e+04 3.232045e-03
1.150250e+04 3.330293e-03
1.150300e+04 3.430957e-03
1.150350e+04 3.534098e-03
1.150400e+04 3.639784e-03
1.150450e+04 3.748083e-03
1.150500e+04 3.859066e-03
1.150550e+04 3.972805e-03
1.150600e+04 4.089378e-03
1.150650e+04 4.208863e-03
1.150700e+04 4.331341e-03
1.150750e+04 4.456899e-03
1.150800e+04 4.585624e-03
1.150850e+04 4.717607e-03
1.150900e+04 4.852944e-03
1.150950e+04 4.991733e-03
1.151000e+04 5.134078e-03
1.151050e+04 5.280084e-03
1.151100e+04 5.429864e-03
1.151150e+04 5.583532e-03
1.151200e+04 5.741209e-03
1.151250e+04 5.903021e-03
1.151300e+04 6.069097e-03
1.151350e+04 6.239574e-03
1.151400e+04 6.414594e-03
1.151450e+04 6.594305e-03
1.151500e+04 6.778861e-03
1.151550e+04 6.968423e-03
1.151600e+04 7.163161e-03
1.151650e+04 7.363250e-03
1.151700e+04 7.568874e-03
1.151750e+04 7.780225e-03
1.151800e+04 7.997506e-03
1.151850e+04 8.220927e-03
1.151900e+04 8.450709e-03
1.151950e+04 8.687084e-03
1.152000e+04 8.930295e-03
1.152050e+04 9.180597e-03
1.152100e+04 9.438258e-03
1.152150e+04 9.703558e-03
1.152200e+04 9.976794e-03
1.152250e+04 1.025828e-02
1.152300e+04 1.054833e-02
1.152350e+04 1.084731e-02
1.152400e+04 1.115556e-02
1.152450e+04 1.147348e-02
1.152500e+04 1.180147e-02
1.152550e+04 1.213995e-02
1.152600e+04 1.248938e-02
1.152650e+04 1.285024e-02
1.152700e+04 1.322302e-02
1.152750e+04 1.360826e-02
1.152800e+04 1.400653e-02
1.152850e+04 1.441843e-02
1.152900e+04 1.484460e-02
1.152950e+04 1.528572e-02
1.153000e+04 1.574250e-02
1.153050e+04 1.621571e-02
1.153100e+04 1.670618e-02
1.153150e+04 1.721477e-02
1.153200e+04 1.774242e-02
1.153250e+04 1.829012e-02
1.153300e+04 1.885894e-02
1.153350e+04 1.945002e-02
1.153400e+04 2.006458e-02
1.153450e+04 2.070394e-02
1.153500e+04 2.136949e-02
1.153550e+04 2.206278e-02
1.153600e+04 2.278543e-02
1.153650e+04 2.353920e-02
1.153700e+04 2.432601e-02
1.153750e+04 2.514792e-02
1.153800e+04 2.600717e-02
1.153850e+04 2.690617e-02
1.153900e+04 2.784758e-02
1.153950e+04 2.883427e-02
1.154000e+04 2.986936e-02
1.154050e+04 3.095627e-02
1.154100e+04 3.209875e-02
1.154150e+04 3.330092e-02
1.154200e+04 3.456728e-02
1.154250e+04 3.590279e-02
1.154300e+04 3.731294e-02
1.154350e+04 3.880379e-02
1.154400e+04 4.038206e-02
1.154450e+04 4.205522e-02
1.154500e+04 4.383158e-02
1.154550e+04 4.572043e-02
1.154600e+04 4.773219e-02
1.154650e+04 4.987853e-02
1.154700e+04 5.217265e-02
1.154750e+04 5.462944e-02
1.154800e+04 5.726579e-02
1.154850e+04 6.010096e-02
1.154900e+04 6.315692e-02
1.154950e+04 6.645892e-02
1.155000e+04 7.003602e-02
1.155050e+04 7.392187e-02
1.155100e+04 7.815559e-02
1.155150e+04 8.278289e-02
1.155200e+04 8.785746e-02
1.155250e+04 9.344274e-02
1.155300e+04 9.961404e-02
1.155350e+04 1.064615e-01
1.155400e+04 1.140933e-01
1.155410e+04 1.157249e-01
1.155420e+04 1.173943e-01
1.155430e+04 1.191025e-01
1.155440e+04 1.208510e-01
1.155450e+04 1.226410e-01
1.155460e+04 1.244740e-01
1.155470e+04 1.263512e-01
1.155480e+04 1.282744e-01
1.155490e+04 1.302450e-01
1.155500e+04 1.322647e-01
1.155510e+04 1.343351e-01
1.155520e+04 1.364581e-01
1.155530e+04 1.386355e-01
1.155540e+04 1.408693e-01
1.155550e+04 1.431614e-01
1.155560e+04 1.455140e-01
1.155570e+04 1.479294e-01
1.155580e+04 1.504097e-01
1.155590e+04 1.529575e-01
1.155600e+04 1.555753e-01
1.155610e+04 1.582658e-01
1.155620e+04 1.610317e-01
1.155630e+04 1.638759e-01
1.155640e+04 1.668015e-01
1.155650e+04 1.698116e-01
1.155660e+04 1.729098e-01
1.155670e+04 1.760994e-01
1.155680e+04 1.793841e-01
1.155690e+04 1.827679e-01
1.155700e+04 1.862547e-01
1.155710e+04 1.898489e-01
1.155720e+04 1.935550e-01
1.155730e+04 1.973776e-01
1.155740e+04 2.013218e-01
1.155750e+04 2.053927e-01
1.155760e+04 2.095958e-01
1.155770e+04 2.139369e-01
1.155780e+04 2.184221e-01
1.155790e+04 2.230576e-01
1.155800e+04 2.278504e-01
1.155810e+04 2.328073e-01
1.155820e+04 2.379359e-01
1.155830e+04 2.432440e-01
1.155840e+04 2.487398e-01
1.155850e+04 2.544321e-01
1.155860e+04 2.603300e-01
1.155870e+04 2.664432e-01
1.155880e+04 2.727817e-01
1.155890e+04 2.793563e-01
1.155900e+04 2.861783e-01
1.155910e+04 2.932594e-01
1.155920e+04 3.006120e-01
1.155930e+04 3.082494e-01
1.155940e+04 3.161852e-01
1.155950e+04 3.244338e-01
1.155960e+04 3.330103e-01
1.155970e+04 3.419307e-01
1.155980e+04 3.512114e-01
1.155990e+04 3.608699e-01
1.156000e+04 3.709242e-01
1.156010e+04 3.813931e-01
1.156020e+04 3.922961e-01
1.156030e+04 4.036535e-01
1.156040e+04 4.154862e-01
1.156050e+04 4.278156e-01
1.156060e+04 4.406638e-01
1.156070e+04 4.540532e-01
1.156080e+04 4.680065e-01
1.156090e+04 4.825464e-01
1.156100e+04 4.976955e-01
1.156110e+04 5.134761e-01
1.156120e+04 5.299098e-01
1.156130e+04 5.470171e-01
1.156140e+04 5.648168e-01
1.156150e+04 5.833261e-01
1.156160e+04 6.025590e-01
1.156170e+04 6.225267e-01
1.156180e+04 6.432358e-01
1.156190e+04 6.646883e-01
1.156200e+04 6.868800e-01
1.156210e+04 7.098000e-01
1.156220e+04 7.334291e-01
1.156230e+04 7.577389e-01
1.156240e+04 7.826909e-01
1.156250e+04 8.082348e-01
1.156260e+04 8.343082e-01
1.156270e+04 8.608352e-01
1.156280e+04 8.877260e-01
1.156290e+04 9.148767e-01
1.156300e+04 9.421691e-01
1.156310e+04 9.694716e-01
1.156320e+04 9.966405e-01
1.156330e+04 1.023521e+00
1.156340e+04 1.049951e+00
1.156350e+04 1.075762e+00
1.156360e+04 1.100784e+00
1.156370e+04 1.124850e+00
1.156380e+04 1.147799e+00
1.156390e+04 1.169480e+00
1.156400e+04 1.189756e+00
1.156410e+04 1.208215e+00
1.156420e+04 1.224425e+00
1.156430e+04 1.238271e+00
1.156440e+04 1.249693e+00
1.156450e+04 1.258681e+00
1.156460e+04 1.265275e+00
1.156470e+04 1.269557e+00
1.156480e+04 1.271645e+00
1.156490e+04 1.271685e+00
1.156500e+04 1.269843e+00
1.156510e+04 1.266296e+00
1.156520e+04 1.261230e+00
1.156530e+04 1.254830e+00
1.156540e+04 1.247279e+00
1.156550e+04 1.238751e+00
1.156560e+04 1.229414e+00
1.156570e+04 1.219425e+00
1.156580e+04 1.208928e+00
1.156590e+04 1.198055e+00
1.156600e+04 1.186929e+00
1.156610e+04 1.175657e+00
1.156620e+04 1.164336e+00
1.156630e+04 1.153053e+00
1.156640e+04 1.141882e+00
1.156650e+04 1.130888e+00
1.156660e+04 1.120126e+00
1.156670e+04 1.109642e+00
1.156680e+04 1.099473e+00
1.156690e+04 1.089651e+00
1.156700e+04 1.080198e+00
1.156710e+04 1.071133e+00
1.156720e+04 1.062466e+00
1.156730e+04 1.054204e+00
1.156740e+04 1.046350e+00
1.156750e+04 1.038903e+00
1.156760e+04 1.031855e+00
1.156770e+04 1.025201e+00
1.156780e+04 1.018929e+00
1.156790e+04 1.013026e+00
1.156800e+04 1.007478e+00
1.156810e+04 1.002270e+00
1.156820e+04 9.973849e-01
1.156830e+04 9.928062e-01
1.156840e+04 9.885167e-01
1.156850e+04 9.844994e-01
1.156860e+04 9.807375e-01
1.156870e+04 9.772147e-01
1.156880e+04 9.739155e-01
1.156890e+04 9.708248e-01
1.156900e+04 9.679286e-01
1.156910e+04 9.652137e-01
1.156920e+04 9.626676e-01
1.156930e+04 9.602787e-01
1.156940e+04 9.580364e-01
1.156950e+04 9.559308e-01
1.156960e+04 9.539526e-01
1.156970e+04 9.520937e-01
1.156980e+04 9.503464e-01
1.156990e+04 9.487035e-01
1.157000e+04 9.471588e-01
1.157010e+04 9.457064e-01
1.157020e+04 9.443410e-01
1.157030e+04 9.430577e-01
1.157040e+04 9.418520e-01
1.157050e+04 9.407201e-01
1.157060e+04 9.396582e-01
1.157070e+04 9.386628e-01
1.157080e+04 9.377312e-01
1.157090e+04 9.368603e-01
1.157100e+04 9.360476e-01
1.157110e+04 9.352908e-01
1.157120e+04 9.345877e-01
1.157130e+04 9.339362e-01
1.157140e+04 9.333344e-01
1.157150e+04 9.327807e-01
1.157160e+04 9.322733e-01
1.157170e+04 9.318107e-01
1.157180e+04 9.313913e-01
1.157190e+04 9.310136e-01
1.157200e+04 9.306764e-01
1.157210e+04 9.303781e-01
1.157220e+04 9.301176e-01
1.157230e+04 9.298933e-01
1.157240e+04 9.297040e-01
1.157250e+04 9.295485e-01
1.157260e+04 9.294252e-01
1.157270e+04 9.293329e-01
1.157280e+04 9.292702e-01
1.157290e+04 9.292359e-01
1.157300e+04 9.292283e-01
1.157310e+04 9.292463e-01
1.157320e+04 9.292882e-01
1.157330e+04 9.293526e-01
1.157340e+04 9.294381e-01
1.157350e+04 9.295431e-01
1.157360e+04 9.296661e-01
1.157370e+04 9.298055e-01
1.157380e+04 9.299598e-01
1.157390e+04 9.301273e-01
1.157400e+04 9.303065e-01
1.157410e+04 9.304958e-01
1.157420e+04 9.306935e-01
1.157430e+04 9.308980e-01
1.157440e+04 9.311077e-01
1.157450e+04 9.313209e-01
1.157460e+04 9.315362e-01
1.157470e+04 9.317519e-01
1.157480e+04 9.319663e-01
1.157490e+04 9.321781e-01
1.157500e+04 9.323856e-01
1.157510e+04 9.325874e-01
1.157520e+04 9.327821e-01
1.157530e+04 9.329681e-01
1.157540e+04 9.331443e-01
1.157550e+04 9.333092e-01
1.157560e+04 9.334616e-01
1.157570e+04 9.336003e-01
1.157580e+04 9.337242e-01
1.157590e+04 9.338322e-01
1.157600e+04 9.339232e-01
1.157610e+04 9.339963e-01
1.157620e+04 9.340507e-01
1.157630e+04 9.340855e-01
1.157640e+04 9.341001e-01
1.157650e+04 9.340937e-01
1.157660e+04 9.340659e-01
1.157670e+04 9.340161e-01
1.157680e+04 9.339439e-01
1.157690e+04 9.338490e-01
1.157700e+04 9.337311e-01
1.157710e+04 9.335901e-01
1.157720e+04 9.334260e-01
1.157730e+04 9.332387e-01
1.157740e+04 9.330284e-01
1.157750e+04 9.327951e-01
1.157760e+04 9.325393e-01
1.157770e+04 9.322611e-01
1.157780e+04 9.319610e-01
1.157790e+04 9.316395e-01
1.157800e+04 9.312971e-01
1.157810e+04 9.309346e-01
1.157820e+04 9.305525e-01
1.157830e+04 9.301517e-01
1.157840e+04 9.297330e-01
1.157850e+04 9.292973e-01
1.157860e+04 9.288455e-01
1.157870e+04 9.283786e-01
1.157880e+04 9.278977e-01
1.157890e+04 9.274039e-01
1.157900e+04 9.268983e-01
1.157910e+04 9.263822e-01
1.157920e+04 9.258566e-01
1.157930e+04 9.253229e-01
1.157940e+04 9.247823e-01
1.157950e+04 9.242361e-01
1.157960e+04 9.236856e-01
1.157970e+04 9.231321e-01
1.157980e+04 9.225770e-01
1.157990e+04 9.220215e-01
1.158000e+04 9.214670e-01
1.158010e+04 9.209148e-01
1.158020e+04 9.203663e-01
1.158030e+04 9.198226e-01
1.158040e+04 9.192851e-01
1.158050e+04 9.187551e-01
1.158060e+04 9.182338e-01
1.158070e+04 9.177224e-01
1.158080e+04 9.172221e-01
1.158090e+04 9.167341e-01
1.158100e+04 9.162594e-01
1.158110e+04 9.157992e-01
1.158120e+04 9.153545e-01
1.158130e+04 9.149263e-01
1.158140e+04 9.145156e-01
1.158150e+04 9.141233e-01
1.158160e+04 9.137504e-01
1.158170e+04 9.133976e-01
1.158180e+04 9.130658e-01
1.158190e+04 9.127557e-01
1.158200e+04 9.124681e-01
1.158210e+04 9.122036e-01
1.158220e+04 9.119630e-01
1.158230e+04 9.117467e-01
1.158240e+04 9.115554e-01
1.158250e+04 9.113895e-01
1.158260e+04 9.112497e-01
1.158270e+04 9.111362e-01
1.158280e+04 9.110496e-01
1.158290e+04 9.109902e-01
1.158300e+04 9.109584e-01
1.158310e+04 9.109544e-01
1.158320e+04 9.109787e-01
1.158330e+04 9.110313e-01
1.158340e+04 9.111127e-01
1.158350e+04 9.112229e-01
1.158360e+04 9.113622e-01
1.158370e+04 9.115306e-01
1.158380e+04 9.117284e-01
1.158390e+04 9.119556e-01
1.158400e+04 9.122124e-01
1.158410e+04 9.124986e-01
1.158420e+04 9.128145e-01
1.158430e+04 9.131599e-01
1.158440e+04 9.135349e-01
1.158450e+04 9.139395e-01
1.158460e+04 9.143735e-01
1.158470e+04 9.148369e-01
1.158480e+04 9.153295e-01
1.158490e+04 9.158512e-01
1.158500e+04 9.164019e-01
1.158510e+04 9.169813e-01
1.158520e+04 9.175892e-01
1.158530e+04 9.182254e-01
1.158540e+04 9.188896e-01
1.158550e+04 9.195815e-01
1.158560e+04 9.203007e-01
1.158570e+04 9.210469e-01
1.158580e+04 9.218196e-01
1.158590e+04 9.226184e-01
1.158600e+04 9.234429e-01
1.158610e+04 9.242925e-01
1.158620e+04 9.251666e-01
1.158630e+04 9.260648e-01
1.158640e+04 9.269864e-01
1.158650e+04 9.279307e-01
1.158660e+04 9.288970e-01
1.158670e+04 9.298846e-01
1.158680e+04 9.308927e-01
1.158690e+04 9.319205e-01
1.158700e+04 9.329672e-01
1.158710e+04 9.340318e-01
1.158720e+04 9.351134e-01
1.158730e+04 9.362111e-01
1.158740e+04 9.373238e-01
1.158750e+04 9.384505e-01
1.158760e+04 9.395900e-01
1.158770e+04 9.407412e-01
1.158780e+04 9.419031e-01
1.158790e+04 9.430742e-01
1.158800e+04 9.442535e-01
1.158810e+04 9.454396e-01
1.158820e+04 9.466312e-01
1.158830e+04 9.478269e-01
1.158840e+04 9.490255e-01
1.158850e+04 9.502254e-01
1.158860e+04 9.514253e-01
1.158870e+04 9.526237e-01
1.158880e+04 9.538192e-01
1.158890e+04 9.550103e-01
1.158900e+04 9.561955e-01
1.158910e+04 9.573734e-01
1.158920e+04 9.585423e-01
1.158930e+04 9.597009e-01
1.158940e+04 9.608477e-01
1.158950e+04 9.619811e-01
1.158960e+04 9.630998e-01
1.158970e+04 9.642023e-01
1.158980e+04 9.652871e-01
1.158990e+04 9.663530e-01
1.159000e+04 9.673985e-01
1.159010e+04 9.684224e-01
1.159020e+04 9.694234e-01
1.159030e+04 9.704003e-01
1.159040e+04 9.713520e-01
1.159050e+04 9.722774e-01
1.159060e+04 9.731753e-01
1.159070e+04 9.740450e-01
1.159080e+04 9.748855e-01
1.159090e+04 9.756960e-01
1.159100e+04 9.764757e-01
1.159110e+04 9.772240e-01
1.159120e+04 9.779404e-01
1.159130e+04 9.786243e-01
1.159140e+04 9.792754e-01
1.159150e+04 9.798934e-01
1.159160e+04 9.804779e-01
1.159170e+04 9.810290e-01
1.159180e+04 9.815465e-01
1.159190e+04 9.820305e-01
1.159200e+04 9.824811e-01
1.159210e+04 9.828986e-01
1.159220e+04 9.832831e-01
1.159230e+04 9.836351e-01
1.159240e+04 9.839551e-01
1.159250e+04 9.842435e-01
1.159260e+04 9.845009e-01
1.159270e+04 9.847280e-01
1.159280e+04 9.849254e-01
1.159290e+04 9.850941e-01
1.159300e+04 9.852347e-01
1.159310e+04 9.853482e-01
1.159320e+04 9.854353e-01
1.159330e+04 9.854973e-01
1.159340e+04 9.855349e-01
1.159350e+04 9.855492e-01
1.159360e+04 9.855413e-01
1.159370e+04 9.855122e-01
1.159380e+04 9.854630e-01
1.159390e+04 9.853948e-01
1.159400e+04 9.853086e-01
1.159450e+04 9.846471e-01
1.159500e+04 9.836986e-01
1.159550e+04 9.825868e-01
1.159600e+04 9.814168e-01
1.159650e+04 9.802705e-01
1.159700e+04 9.792042e-01
1.159750e+04 9.782474e-01
1.159800e+04 9.774047e-01
1.159850e+04 9.766594e-01
1.159900e+04 9.759798e-01
1.159950e+04 9.753278e-01
1.160000e+04 9.746684e-01
1.160050e+04 9.739782e-01
1.160100e+04 9.732535e-01
1.160150e+04 9.725139e-01
1.160200e+04 9.718024e-01
1.160250e+04 9.711824e-01
1.160300e+04 9.707312e-01
1.160350e+04 9.705323e-01
1.160400e+04 9.706667e-01
1.160450e+04 9.712065e-01
1.160500e+04 9.722085e-01
1.160550e+04 9.737115e-01
1.160600e+04 9.757349e-01
1.160650e+04 9.782798e-01
1.160700e+04 9.813309e-01
1.160750e+04 9.848593e-01
1.160800e+04 9.888257e-01
1.160850e+04 9.931828e-01
1.160900e+04 9.978776e-01
1.160950e+04 1.002852e+00
1.161000e+04 1.008045e+00
1.161050e+04 1.013392e+00
1.161100e+04 1.018824e+00
1.161150e+04 1.024269e+00
1.161200e+04 1.029654e+00
1.161250e+04 1.034900e+00
1.161300e+04 1.039928e+00
1.161350e+04 1.044659e+00
1.161400e+04 1.049019e+00
1.161450e+04 1.052939e+00
1.161500e+04 1.056364e+00
1.161550e+04 1.059256e+00
1.161600e+04 1.061595e+00
1.161650e+04 1.063386e+00
1.161700e+04 1.064654e+00
1.161750e+04 1.065442e+00
1.161800e+04 1.065810e+00
1.161850e+04 1.065822e+00
1.161900e+04 1.065547e+00
1.161950e+04 1.065049e+00
1.162000e+04 1.064383e+00
1.162050e+04 1.063595e+00
1.162100e+04 1.062720e+00
1.162150e+04 1.061783e+00
1.162200e+04 1.060802e+00
