# energy(eV) normalized_intensity
1.141400e+04 6.448276e-04
1.141450e+04 6.268174e-04
1.141500e+04 6.089571e-04
1.141550e+04 5.912476e-04
1.141600e+04 5.736908e-04
1.141650e+04 5.562887e-04
1.141700e+04 5.390425e-04
1.141750e+04 5.219537e-04
1.141800e+04 5.050243e-04
1.141850e+04 4.882562e-04
1.141900e+04 4.716505e-04
1.141950e+04 4.552094e-04
1.142000e+04 4.389347e-04
1.142050e+04 4.228279e-04
1.142100e+04 4.068908e-04
1.142150e+04 3.911256e-04
1.142200e+04 3.755342e-04
1.142250e+04 3.601179e-04
1.142300e+04 3.448793e-04
1.142350e+04 3.298201e-04
1.142400e+04 3.149422e-04
1.142450e+04 3.002477e-04
1.142500e+04 2.857387e-04
1.142550e+04 2.714173e-04
1.142600e+04 2.572854e-04
1.142650e+04 2.433453e-04
1.142700e+04 2.295991e-04
1.142750e+04 2.160491e-04
1.142800e+04 2.026975e-04
1.142850e+04 1.895467e-04
1.142900e+04 1.765987e-04
1.142950e+04 1.638560e-04
1.143000e+04 1.513214e-04
1.143050e+04 1.389964e-04
1.143100e+04 1.268843e-04
1.143150e+04 1.149871e-04
1.143200e+04 1.033077e-04
1.143250e+04 9.184831e-05
1.143300e+04 8.061191e-05
1.143350e+04 6.960076e-05
1.143400e+04 5.881804e-05
1.143450e+04 4.826577e-05
1.143500e+04 3.794740e-05
1.143550e+04 2.786552e-05
1.143600e+04 1.802301e-05
1.143650e+04 8.422768e-06
1.143700e+04 -9.320552e-07
1.143750e+04 -1.003886e-05
1.143800e+04 -1.889419e-05
1.143850e+04 -2.749517e-05
1.143900e+04 -3.583833e-05
1.143950e+04 -4.392080e-05
1.144000e+04 -5.173912e-05
1.144050e+04 -5.929012e-05
1.144100e+04 -6.657006e-05
1.144150e+04 -7.357576e-05
1.144200e+04 -8.030378e-05
1.144250e+04 -8.675065e-05
1.144300e+04 -9.291234e-05
1.144350e+04 -9.878539e-05
1.144400e+04 -1.043661e-04
1.144450e+04 -1.096506e-04
1.144500e+04 -1.146350e-04
1.144550e+04 -1.193152e-04
1.144600e+04 -1.236877e-04
1.144650e+04 -1.277477e-04
1.144700e+04 -1.314917e-04
1.144750e+04 -1.349151e-04
1.144800e+04 -1.380138e-04
1.144850e+04 -1.407830e-04
1.144900e+04 -1.432188e-04
1.144950e+04 -1.453163e-04
1.145000e+04 -1.470706e-04
1.145050e+04 -1.484778e-04
1.145100e+04 -1.495324e-04
1.145150e+04 -1.502298e-04
1.145200e+04 -1.505649e-04
1.145250e+04 -1.505326e-04
1.145300e+04 -1.501282e-04
1.145350e+04 -1.493455e-04
1.145400e+04 -1.481801e-04
1.145450e+04 -1.466262e-04
1.145500e+04 -1.446778e-04
1.145550e+04 -1.423298e-04
1.145600e+04 -1.395762e-04
1.145650e+04 -1.364112e-04
1.145700e+04 -1.328285e-04
1.145750e+04 -1.288224e-04
1.145800e+04 -1.243862e-04
1.145850e+04 -1.195138e-04
1.145900e+04 -1.141984e-04
1.145950e+04 -1.084339e-04
1.146000e+04 -1.022134e-04
1.146050e+04 -9.552972e-05
1.146100e+04 -8.837587e-05
1.146150e+04 -8.074469e-05
1.146200e+04 -7.262898e-05
1.146250e+04 -6.402125e-05
1.146300e+04 -5.491400e-05
1.146350e+04 -4.529917e-05
1.146400e+04 -3.516899e-05
1.146450e+04 -2.451509e-05
1.146500e+04 -1.332942e-05
1.146550e+04 -1.603614e-06
1.146600e+04 1.067125e-05
1.146650e+04 2.350383e-05
1.146700e+04 3.690333e-05
1.146750e+04 5.087868e-05
1.146800e+04 6.543939e-05
1.146850e+04 8.059526e-05
1.146900e+04 9.635580e-05
1.146950e+04 1.127314e-04
1.147000e+04 1.297320e-04
1.147050e+04 1.473682e-04
1.147100e+04 1.656508e-04
1.147150e+04 1.845908e-04
1.147200e+04 2.041994e-04
1.147250e+04 2.244882e-04
1.147300e+04 2.454689e-04
1.147350e+04 2.671530e-04
1.147400e+04 2.895536e-04
1.147450e+04 3.126828e-04
1.147500e+04 3.365534e-04
1.147550e+04 3.611791e-04
1.147600e+04 3.865728e-04
1.147650e+04 4.127486e-04
1.147700e+04 4.397207e-04
1.147750e+04 4.675034e-04
1.147800e+04 4.961120e-04
1.147850e+04 5.255609e-04
1.147900e+04 5.558665e-04
1.147950e+04 5.870445e-04
1.148000e+04 6.191108e-04
1.148050e+04 6.520829e-04
1.148100e+04 6.859777e-04
1.148150e+04 7.208128e-04
1.148200e+04 7.566062e-04
1.148250e+04 7.933766e-04
1.148300e+04 8.311431e-04
1.148350e+04 8.699251e-04
1.148400e+04 9.097427e-04
1.148450e+04 9.506164e-04
1.148500e+04 9.925675e-04
1.148550e+04 1.035618e-03
1.148600e+04 1.079789e-03
1.148650e+04 1.125104e-03
1.148700e+04 1.171587e-03
1.148750e+04 1.219262e-03
1.148800e+04 1.268154e-03
1.148850e+04 1.318287e-03
1.148900e+04 1.369689e-03
1.148950e+04 1.422386e-03
1.149000e+04 1.476406e-03
1.149050e+04 1.531778e-03
1.149100e+04 1.588530e-03
1.149150e+04 1.646694e-03
1.149200e+04 1.706300e-03
1.149250e+04 1.767380e-03
1.149300e+04 1.829967e-03
1.149350e+04 1.894095e-03
1.149400e+04 1.959799e-03
1.149450e+04 2.027115e-03
1.149500e+04 2.096080e-03
1.149550e+04 2.166733e-03
1.149600e+04 2.239112e-03
1.149650e+04 2.313259e-03
1.149700e+04 2.389215e-03
1.149750e+04 2.467024e-03
1.149800e+04 2.546731e-03
1.149850e+04 2.628381e-03
1.149900e+04 2.712023e-03
1.149950e+04 2.797705e-03
1.150000e+04 2.885478e-03
1.150050e+04 2.975395e-03
1.150100e+04 3.067510e-03
1.150150e+04 3.161879e-03
1.150200e+04 3.258560e-03
1.150250e+04 3.357613e-03
1.150300e+04 3.459101e-03
1.150350e+04 3.563087e-03
1.150400e+04 3.669639e-03
1.150450e+04 3.778825e-03
1.150500e+04 3.890716e-03
1.150550e+04 4.005387e-03
1.150600e+04 4.122914e-03
1.150650e+04 4.243377e-03
1.150700e+04 4.366859e-03
1.150750e+04 4.493444e-03
1.150800e+04 4.623223e-03
1.150850e+04 4.756286e-03
1.150900e+04 4.892731e-03
1.150950e+04 5.032656e-03
1.151000e+04 5.176166e-03
1.151050e+04 5.323367e-03
1.151100e+04 5.474373e-03
1.151150e+04 5.629298e-03
1.151200e+04 5.788266e-03
1.151250e+04 5.951401e-03
1.151300e+04 6.118836e-03
1.151350e+04 6.290708e-03
1.151400e+04 6.467160e-03
1.151450e+04 6.648341e-03
1.151500e+04 6.834407e-03
1.151550e+04 7.025520e-03
1.151600e+04 7.221851e-03
1.151650e+04 7.423576e-03
1.151700e+04 7.630882e-03
1.151750e+04 7.843962e-03
1.151800e+04 8.063020e-03
1.151850e+04 8.288268e-03
1.151900e+04 8.519929e-03
1.151950e+04 8.758237e-03
1.152000e+04 9.003437e-03
1.152050e+04 9.255785e-03
1.152100e+04 9.515553e-03
1.152150e+04 9.783022e-03
1.152200e+04 1.005849e-02
1.152250e+04 1.034228e-02
1.152300e+04 1.063470e-02
1.152350e+04 1.093612e-02
1.152400e+04 1.124690e-02
1.152450e+04 1.156741e-02
1.152500e+04 1.189808e-02
1.152550e+04 1.223933e-02
1.152600e+04 1.259162e-02
1.152650e+04 1.295542e-02
1.152700e+04 1.333125e-02
1.152750e+04 1.371964e-02
1.152800e+04 1.412117e-02
1.152850e+04 1.453643e-02
1.152900e+04 1.496608e-02
1.152950e+04 1.541080e-02
1.153000e+04 1.587131e-02
1.153050e+04 1.634839e-02
1.153100e+04 1.684287e-02
1.153150e+04 1.735562e-02
1.153200e+04 1.788758e-02
1.153250e+04 1.843976e-02
1.153300e+04 1.901322e-02
1.153350e+04 1.960913e-02
1.153400e+04 2.022870e-02
1.153450e+04 2.087328e-02
1.153500e+04 2.154428e-02
1.153550e+04 2.224322e-02
1.153600e+04 2.297177e-02
1.153650e+04 2.373170e-02
1.153700e+04 2.452494e-02
1.153750e+04 2.535356e-02
1.153800e+04 2.621982e-02
1.153850e+04 2.712617e-02
1.153900e+04 2.807527e-02
1.153950e+04 2.907001e-02
1.154000e+04 3.011355e-02
1.154050e+04 3.120934e-02
1.154100e+04 3.236115e-02
1.154150e+04 3.357313e-02
1.154200e+04 3.484982e-02
1.154250e+04 3.619624e-02
1.154300e+04 3.761790e-02
1.154350e+04 3.912092e-02
1.154400e+04 4.071208e-02
1.154450e+04 4.239889e-02
1.154500e+04 4.418975e-02
1.154550e+04 4.609402e-02
1.154600e+04 4.812220e-02
1.154650e+04 5.028606e-02
1.154700e+04 5.259891e-02
1.154750e+04 5.507574e-02
1.154800e+04 5.773362e-02
1.154850e+04 6.059192e-02
1.154900e+04 6.367283e-02
1.154950e+04 6.700177e-02
1.155000e+04 7.060806e-02
1.155050e+04 7.452562e-02
1.155100e+04 7.879389e-02
1.155150e+04 8.345895e-02
1.155200e+04 8.857494e-02
1.155250e+04 9.420578e-02
1.155300e+04 1.004275e-01
1.155350e+04 1.073307e-01
1.155400e+04 1.150249e-01
1.155410e+04 1.166698e-01
1.155420e+04 1.183528e-01
1.155430e+04 1.200750e-01
1.155440e+04 1.218377e-01
1.155450e+04 1.236423e-01
1.155460e+04 1.254902e-01
1.155470e+04 1.273828e-01
1.155480e+04 1.293217e-01
1.155490e+04 1.313084e-01
1.155500e+04 1.333445e-01
1.155510e+04 1.354318e-01
1.155520e+04 1.375722e-01
1.155530e+04 1.397673e-01
1.155540e+04 1.420193e-01
1.155550e+04 1.443301e-01
1.155560e+04 1.467019e-01
1.155570e+04 1.491370e-01
1.155580e+04 1.516376e-01
1.155590e+04 1.542062e-01
1.155600e+04 1.568454e-01
1.155610e+04 1.595578e-01
1.155620e+04 1.623462e-01
1.155630e+04 1.652136e-01
1.155640e+04 1.681631e-01
1.155650e+04 1.711978e-01
1.155660e+04 1.743212e-01
1.155670e+04 1.775368e-01
1.155680e+04 1.808484e-01
1.155690e+04 1.842597e-01
1.155700e+04 1.877750e-01
1.155710e+04 1.913986e-01
1.155720e+04 1.951349e-01
1.155730e+04 1.989887e-01
1.155740e+04 2.029651e-01
1.155750e+04 2.070692e-01
1.155760e+04 2.113066e-01
1.155770e+04 2.156831e-01
1.155780e+04 2.202048e-01
1.155790e+04 2.248782e-01
1.155800e+04 2.297100e-01
1.155810e+04 2.347074e-01
1.155820e+04 2.398778e-01
1.155830e+04 2.452292e-01
1.155840e+04 2.507699e-01
1.155850e+04 2.565087e-01
1.155860e+04 2.624547e-01
1.155870e+04 2.686177e-01
1.155880e+04 2.750080e-01
1.155890e+04 2.816362e-01
1.155900e+04 2.885138e-01
1.155910e+04 2.956527e-01
1.155920e+04 3.030653e-01
1.155930e+04 3.107650e-01
1.155940e+04 3.187655e-01
1.155950e+04 3.270814e-01
1.155960e+04 3.357279e-01
1.155970e+04 3.447210e-01
1.155980e+04 3.540775e-01
1.155990e+04 3.638148e-01
1.156000e+04 3.739511e-01
1.156010e+04 3.845053e-01
1.156020e+04 3.954973e-01
1.156030e+04 4.069473e-01
1.156040e+04 4.188765e-01
1.156050e+04 4.313066e-01
1.156060e+04 4.442596e-01
1.156070e+04 4.577582e-01
1.156080e+04 4.718253e-01
1.156090e+04 4.864838e-01
1.156100e+04 5.017565e-01
1.156110e+04 5.176658e-01
1.156120e+04 5.342336e-01
1.156130e+04 5.514804e-01
1.156140e+04 5.694253e-01
1.156150e+04 5.880856e-01
1.156160e+04 6.074754e-01
1.156170e+04 6.276059e-01
1.156180e+04 6.484839e-01
1.156190e+04 6.701114e-01
1.156200e+04 6.924842e-01
1.156210e+04 7.155911e-01
1.156220e+04 7.394129e-01
1.156230e+04 7.639210e-01
1.156240e+04 7.890765e-01
1.156250e+04 8.148288e-01
1.156260e+04 8.411148e-01
1.156270e+04 8.678582e-01
1.156280e+04 8.949683e-01
1.156290e+04 9.223404e-01
1.156300e+04 9.498554e-01
1.156310e+04 9.773806e-01
1.156320e+04 1.004771e+00
1.156330e+04 1.031871e+00
1.156340e+04 1.058516e+00
1.156350e+04 1.084537e+00
1.156360e+04 1.109764e+00
1.156370e+04 1.134026e+00
1.156380e+04 1.157162e+00
1.156390e+04 1.179020e+00
1.156400e+04 1.199461e+00
1.156410e+04 1.218349e+00
1.156420e+04 1.235562e+00
1.156430e+04 1.251024e+00
1.156440e+04 1.264681e+00
1.156450e+04 1.276509e+00
1.156460e+04 1.286506e+00
1.156470e+04 1.294696e+00
1.156480e+04 1.301124e+00
1.156490e+04 1.305854e+00
1.156500e+04 1.308964e+00
1.156510e+04 1.310545e+00
1.156520e+04 1.310698e+00
1.156530e+04 1.309528e+00
1.156540e+04 1.307145e+00
1.156550e+04 1.303658e+00
1.156560e+04 1.299179e+00
1.156570e+04 1.293813e+00
1.156580e+04 1.287666e+00
1.156590e+04 1.280837e+00
1.156600e+04 1.273422e+00
1.156610e+04 1.265510e+00
1.156620e+04 1.257187e+00
1.156630e+04 1.248533e+00
1.156640e+04 1.239622e+00
1.156650e+04 1.230524e+00
1.156660e+04 1.221302e+00
1.156670e+04 1.212015e+00
1.156680e+04 1.202719e+00
1.156690e+04 1.193462e+00
1.156700e+04 1.184289e+00
1.156710e+04 1.175240e+00
1.156720e+04 1.166352e+00
1.156730e+04 1.157655e+00
1.156740e+04 1.149178e+00
1.156750e+04 1.140945e+00
1.156760e+04 1.132975e+00
1.156770e+04 1.125284e+00
1.156780e+04 1.117887e+00
1.156790e+04 1.110791e+00
1.156800e+04 1.104005e+00
1.156810e+04 1.097531e+00
1.156820e+04 1.091370e+00
1.156830e+04 1.085521e+00
1.156840e+04 1.079979e+00
1.156850e+04 1.074737e+00
1.156860e+04 1.069788e+00
1.156870e+04 1.065120e+00
1.156880e+04 1.060720e+00
1.156890e+04 1.056574e+00
1.156900e+04 1.052666e+00
1.156910e+04 1.048979e+00
1.156920e+04 1.045496e+00
1.156930e+04 1.042197e+00
1.156940e+04 1.039062e+00
1.156950e+04 1.036074e+00
1.156960e+04 1.033211e+00
1.156970e+04 1.030455e+00
1.156980e+04 1.027789e+00
1.156990e+04 1.025195e+00
1.157000e+04 1.022658e+00
1.157010e+04 1.020163e+00
1.157020e+04 1.017701e+00
1.157030e+04 1.015260e+00
1.157040e+04 1.012835e+00
1.157050e+04 1.010420e+00
1.157060e+04 1.008014e+00
1.157070e+04 1.005617e+00
1.157080e+04 1.003232e+00
1.157090e+04 1.000864e+00
1.157100e+04 9.985213e-01
1.157110e+04 9.962114e-01
1.157120e+04 9.939452e-01
1.157130e+04 9.917340e-01
1.157140e+04 9.895901e-01
1.157150e+04 9.875261e-01
1.157160e+04 9.855549e-01
1.157170e+04 9.836890e-01
1.157180e+04 9.819407e-01
1.157190e+04 9.803215e-01
1.157200e+04 9.788418e-01
1.157210e+04 9.775110e-01
1.157220e+04 9.763372e-01
1.157230e+04 9.753271e-01
1.157240e+04 9.744859e-01
1.157250e+04 9.738171e-01
1.157260e+04 9.733228e-01
1.157270e+04 9.730033e-01
1.157280e+04 9.728574e-01
1.157290e+04 9.728824e-01
1.157300e+04 9.730739e-01
1.157310e+04 9.734262e-01
1.157320e+04 9.739323e-01
1.157330e+04 9.745839e-01
1.157340e+04 9.753715e-01
1.157350e+04 9.762848e-01
1.157360e+04 9.773124e-01
1.157370e+04 9.784423e-01
1.157380e+04 9.796618e-01
1.157390e+04 9.809580e-01
1.157400e+04 9.823174e-01
1.157410e+04 9.837264e-01
1.157420e+04 9.851714e-01
1.157430e+04 9.866389e-01
1.157440e+04 9.881157e-01
1.157450e+04 9.895885e-01
1.157460e+04 9.910450e-01
1.157470e+04 9.924728e-01
1.157480e+04 9.938606e-01
1.157490e+04 9.951973e-01
1.157500e+04 9.964728e-01
1.157510e+04 9.976774e-01
1.157520e+04 9.988024e-01
1.157530e+04 9.998398e-01
1.157540e+04 1.000782e+00
1.157550e+04 1.001624e+00
1.157560e+04 1.002358e+00
1.157570e+04 1.002980e+00
1.157580e+04 1.003486e+00
1.157590e+04 1.003873e+00
1.157600e+04 1.004137e+00
1.157610e+04 1.004277e+00
1.157620e+04 1.004291e+00
1.157630e+04 1.004179e+00
1.157640e+04 1.003940e+00
1.157650e+04 1.003576e+00
1.157660e+04 1.003087e+00
1.157670e+04 1.002474e+00
1.157680e+04 1.001741e+00
1.157690e+04 1.000890e+00
1.157700e+04 9.999246e-01
1.157710e+04 9.988480e-01
1.157720e+04 9.976647e-01
1.157730e+04 9.963794e-01
1.157740e+04 9.949970e-01
1.157750e+04 9.935231e-01
1.157760e+04 9.919633e-01
1.157770e+04 9.903238e-01
1.157780e+04 9.886107e-01
1.157790e+04 9.868306e-01
1.157800e+04 9.849901e-01
1.157810e+04 9.830961e-01
1.157820e+04 9.811554e-01
1.157830e+04 9.791750e-01
1.157840e+04 9.771618e-01
1.157850e+04 9.751227e-01
1.157860e+04 9.730645e-01
1.157870e+04 9.709938e-01
1.157880e+04 9.689170e-01
1.157890e+04 9.668405e-01
1.157900e+04 9.647704e-01
1.157910e+04 9.627122e-01
1.157920e+04 9.606716e-01
1.157930e+04 9.586537e-01
1.157940e+04 9.566633e-01
1.157950e+04 9.547049e-01
1.157960e+04 9.527826e-01
1.157970e+04 9.509001e-01
1.157980e+04 9.490609e-01
1.157990e+04 9.472680e-01
1.158000e+04 9.455240e-01
1.158010e+04 9.438313e-01
1.158020e+04 9.421919e-01
1.158030e+04 9.406074e-01
1.158040e+04 9.390792e-01
1.158050e+04 9.376084e-01
1.158060e+04 9.361957e-01
1.158070e+04 9.348418e-01
1.158080e+04 9.335468e-01
1.158090e+04 9.323110e-01
1.158100e+04 9.311342e-01
1.158110e+04 9.300162e-01
1.158120e+04 9.289565e-01
1.158130e+04 9.279546e-01
1.158140e+04 9.270098e-01
1.158150e+04 9.261213e-01
1.158160e+04 9.252884e-01
1.158170e+04 9.245099e-01
1.158180e+04 9.237850e-01
1.158190e+04 9.231126e-01
1.158200e+04 9.224916e-01
1.158210e+04 9.219210e-01
1.158220e+04 9.213994e-01
1.158230e+04 9.209260e-01
1.158240e+04 9.204994e-01
1.158250e+04 9.201185e-01
1.158260e+04 9.197821e-01
1.158270e+04 9.194892e-01
1.158280e+04 9.192385e-01
1.158290e+04 9.190290e-01
1.158300e+04 9.188594e-01
1.158310e+04 9.187288e-01
1.158320e+04 9.186359e-01
1.158330e+04 9.185798e-01
1.158340e+04 9.185594e-01
1.158350e+04 9.185736e-01
1.158360e+04 9.186214e-01
1.158370e+04 9.187017e-01
1.158380e+04 9.188137e-01
1.158390e+04 9.189562e-01
1.158400e+04 9.191284e-01
1.158410e+04 9.193293e-01
1.158420e+04 9.195580e-01
1.158430e+04 9.198135e-01
1.158440e+04 9.200949e-01
1.158450e+04 9.204013e-01
1.158460e+04 9.207320e-01
1.158470e+04 9.210858e-01
1.158480e+04 9.214621e-01
1.158490e+04 9.218600e-01
1.158500e+04 9.222786e-01
1.158510e+04 9.227171e-01
1.158520e+04 9.231747e-01
1.158530e+04 9.236506e-01
1.158540e+04 9.241439e-01
1.158550e+04 9.246538e-01
1.158560e+04 9.251796e-01
1.158570e+04 9.257205e-01
1.158580e+04 9.262757e-01
1.158590e+04 9.268444e-01
1.158600e+04 9.274258e-01
1.158610e+04 9.280193e-01
1.158620e+04 9.286240e-01
1.158630e+04 9.292392e-01
1.158640e+04 9.298641e-01
1.158650e+04 9.304980e-01
1.158660e+04 9.311401e-01
1.158670e+04 9.317897e-01
1.158680e+04 9.324462e-01
1.158690e+04 9.331086e-01
1.158700e+04 9.337765e-01
1.158710e+04 9.344489e-01
1.158720e+04 9.351253e-01
1.158730e+04 9.358049e-01
1.158740e+04 9.364870e-01
1.158750e+04 9.371709e-01
1.158760e+04 9.378560e-01
1.158770e+04 9.385416e-01
1.158780e+04 9.392270e-01
1.158790e+04 9.399115e-01
1.158800e+04 9.405946e-01
1.158810e+04 9.412755e-01
1.158820e+04 9.419538e-01
1.158830e+04 9.426287e-01
1.158840e+04 9.432996e-01
1.158850e+04 9.439660e-01
1.158860e+04 9.446272e-01
1.158870e+04 9.452829e-01
1.158880e+04 9.459323e-01
1.158890e+04 9.465750e-01
1.158900e+04 9.472104e-01
1.158910e+04 9.478381e-01
1.158920e+04 9.484576e-01
1.158930e+04 9.490685e-01
1.158940e+04 9.496703e-01
1.158950e+04 9.502626e-01
1.158960e+04 9.508450e-01
1.158970e+04 9.514171e-01
1.158980e+04 9.519786e-01
1.158990e+04 9.525291e-01
1.159000e+04 9.530684e-01
1.159010e+04 9.535962e-01
1.159020e+04 9.541122e-01
1.159030e+04 9.546161e-01
1.159040e+04 9.551078e-01
1.159050e+04 9.555871e-01
1.159060e+04 9.560538e-01
1.159070e+04 9.565077e-01
1.159080e+04 9.569488e-01
1.159090e+04 9.573770e-01
1.159100e+04 9.577921e-01
1.159110e+04 9.581941e-01
1.159120e+04 9.585831e-01
1.159130e+04 9.589589e-01
1.159140e+04 9.593217e-01
1.159150e+04 9.596714e-01
1.159160e+04 9.600081e-01
1.159170e+04 9.603320e-01
1.159180e+04 9.606430e-01
1.159190e+04 9.609414e-01
1.159200e+04 9.612272e-01
1.159210e+04 9.615006e-01
1.159220e+04 9.617618e-01
1.159230e+04 9.620110e-01
1.159240e+04 9.622483e-01
1.159250e+04 9.624741e-01
1.159260e+04 9.626885e-01
1.159270e+04 9.628917e-01
1.159280e+04 9.630840e-01
1.159290e+04 9.632657e-01
1.159300e+04 9.634370e-01
1.159310e+04 9.635983e-01
1.159320e+04 9.637498e-01
1.159330e+04 9.638919e-01
1.159340e+04 9.640247e-01
1.159350e+04 9.641486e-01
1.159360e+04 9.642641e-01
1.159370e+04 9.643712e-01
1.159380e+04 9.644704e-01
1.159390e+04 9.645620e-01
1.159400e+04 9.646463e-01
1.159450e+04 9.649696e-01
1.159500e+04 9.651575e-01
1.159550e+04 9.652467e-01
1.159600e+04 9.652700e-01
1.159650e+04 9.652552e-01
1.159700e+04 9.652253e-01
1.159750e+04 9.651983e-01
1.159800e+04 9.651876e-01
1.159850e+04 9.652038e-01
1.159900e+04 9.652553e-01
1.159950e+04 9.653499e-01
1.160000e+04 9.654960e-01
1.160050e+04 9.657034e-01
1.160100e+04 9.659844e-01
1.160150e+04 9.663536e-01
1.160200e+04 9.668278e-01
1.160250e+04 9.674255e-01
1.160300e+04 9.681658e-01
1.160350e+04 9.690676e-01
1.160400e+04 9.701480e-01
1.160450e+04 9.714215e-01
1.160500e+04 9.728991e-01
1.160550e+04 9.745874e-01
1.160600e+04 9.764883e-01
1.160650e+04 9.785990e-01
1.160700e+04 9.809114e-01
1.160750e+04 9.834133e-01
1.160800e+04 9.860879e-01
1.160850e+04 9.889147e-01
1.160900e+04 9.918700e-01
1.160950e+04 9.949273e-01
1.161000e+04 9.980577e-01
1.161050e+04 1.001231e+00
1.161100e+04 1.004416e+00
1.161150e+04 1.007580e+00
1.161200e+04 1.010692e+00
1.161250e+04 1.013720e+00
1.161300e+04 1.016635e+00
1.161350e+04 1.019411e+00
1.161400e+04 1.022022e+00
1.161450e+04 1.024448e+00
1.161500e+04 1.026673e+00
1.161550e+04 1.028685e+00
1.161600e+04 1.030476e+00
1.161650e+04 1.032046e+00
1.161700e+04 1.033395e+00
1.161750e+04 1.034531e+00
1.161800e+04 1.035464e+00
1.161850e+04 1.036205e+00
1.161900e+04 1.036770e+00
1.161950e+04 1.037173e+00
1.162000e+04 1.037430e+00
1.162050e+04 1.037557e+00
1.162100e+04 1.037566e+00
1.162150e+04 1.037472e+00
1.162200e+04 1.037287e+00
