# energy(eV) normalized_intensity
1.141400e+04 6.490151e-04
1.141450e+04 6.308878e-04
1.141500e+04 6.129112e-04
1.141550e+04 5.950865e-04
1.141600e+04 5.774155e-04
1.141650e+04 5.599002e-04
1.141700e+04 5.425417e-04
1.141750e+04 5.253418e-04
1.141800e+04 5.083023e-04
1.141850e+04 4.914252e-04
1.141900e+04 4.747115e-04
1.141950e+04 4.581635e-04
1.142000e+04 4.417830e-04
1.142050e+04 4.255715e-04
1.142100e+04 4.095308e-04
1.142150e+04 3.936632e-04
1.142200e+04 3.779705e-04
1.142250e+04 3.624540e-04
1.142300e+04 3.471164e-04
1.142350e+04 3.319594e-04
1.142400e+04 3.169848e-04
1.142450e+04 3.021949e-04
1.142500e+04 2.875918e-04
1.142550e+04 2.731773e-04
1.142600e+04 2.589537e-04
1.142650e+04 2.449231e-04
1.142700e+04 2.310877e-04
1.142750e+04 2.174497e-04
1.142800e+04 2.040115e-04
1.142850e+04 1.907753e-04
1.142900e+04 1.777433e-04
1.142950e+04 1.649180e-04
1.143000e+04 1.523021e-04
1.143050e+04 1.398972e-04
1.143100e+04 1.277065e-04
1.143150e+04 1.157322e-04
1.143200e+04 1.039770e-04
1.143250e+04 9.244339e-05
1.143300e+04 8.113415e-05
1.143350e+04 7.005164e-05
1.143400e+04 5.919905e-05
1.143450e+04 4.857840e-05
1.143500e+04 3.819318e-05
1.143550e+04 2.804599e-05
1.143600e+04 1.813973e-05
1.143650e+04 8.477310e-06
1.143700e+04 -9.380904e-07
1.143750e+04 -1.010386e-05
1.143800e+04 -1.901652e-05
1.143850e+04 -2.767317e-05
1.143900e+04 -3.607033e-05
1.143950e+04 -4.420511e-05
1.144000e+04 -5.207401e-05
1.144050e+04 -5.967387e-05
1.144100e+04 -6.700090e-05
1.144150e+04 -7.405191e-05
1.144200e+04 -8.082343e-05
1.144250e+04 -8.731198e-05
1.144300e+04 -9.351350e-05
1.144350e+04 -9.942451e-05
1.144400e+04 -1.050412e-04
1.144450e+04 -1.103599e-04
1.144500e+04 -1.153765e-04
1.144550e+04 -1.200869e-04
1.144600e+04 -1.244877e-04
1.144650e+04 -1.285739e-04
1.144700e+04 -1.323420e-04
1.144750e+04 -1.357875e-04
1.144800e+04 -1.389062e-04
1.144850e+04 -1.416932e-04
1.144900e+04 -1.441448e-04
1.144950e+04 -1.462557e-04
1.145000e+04 -1.480213e-04
1.145050e+04 -1.494376e-04
1.145100e+04 -1.504990e-04
1.145150e+04 -1.512008e-04
1.145200e+04 -1.515380e-04
1.145250e+04 -1.515055e-04
1.145300e+04 -1.510983e-04
1.145350e+04 -1.503106e-04
1.145400e+04 -1.491375e-04
1.145450e+04 -1.475736e-04
1.145500e+04 -1.456125e-04
1.145550e+04 -1.432492e-04
1.145600e+04 -1.404778e-04
1.145650e+04 -1.372923e-04
1.145700e+04 -1.336864e-04
1.145750e+04 -1.296544e-04
1.145800e+04 -1.251895e-04
1.145850e+04 -1.202856e-04
1.145900e+04 -1.149358e-04
1.145950e+04 -1.091341e-04
1.146000e+04 -1.028734e-04
1.146050e+04 -9.614645e-05
1.146100e+04 -8.894639e-05
1.146150e+04 -8.126591e-05
1.146200e+04 -7.309778e-05
1.146250e+04 -6.443446e-05
1.146300e+04 -5.526841e-05
1.146350e+04 -4.559151e-05
1.146400e+04 -3.539594e-05
1.146450e+04 -2.467328e-05
1.146500e+04 -1.341542e-05
1.146550e+04 -1.613960e-06
1.146600e+04 1.074010e-05
1.146650e+04 2.365545e-05
1.146700e+04 3.714138e-05
1.146750e+04 5.120686e-05
1.146800e+04 6.586146e-05
1.146850e+04 8.111505e-05
1.146900e+04 9.697719e-05
1.146950e+04 1.134583e-04
1.147000e+04 1.305686e-04
1.147050e+04 1.483184e-04
1.147100e+04 1.667188e-04
1.147150e+04 1.857808e-04
1.147200e+04 2.055158e-04
1.147250e+04 2.259352e-04
1.147300e+04 2.470511e-04
1.147350e+04 2.688749e-04
1.147400e+04 2.914198e-04
1.147450e+04 3.146978e-04
1.147500e+04 3.387222e-04
1.147550e+04 3.635064e-04
1.147600e+04 3.890636e-04
1.147650e+04 4.154079e-04
1.147700e+04 4.425535e-04
1.147750e+04 4.705150e-04
1.147800e+04 4.993077e-04
1.147850e+04 5.289461e-04
1.147900e+04 5.594467e-04
1.147950e+04 5.908253e-04
1.148000e+04 6.230979e-04
1.148050e+04 6.562820e-04
1.148100e+04 6.903948e-04
1.148150e+04 7.254539e-04
1.148200e+04 7.614775e-04
1.148250e+04 7.984843e-04
1.148300e+04 8.364936e-04
1.148350e+04 8.755248e-04
1.148400e+04 9.155984e-04
1.148450e+04 9.567348e-04
1.148500e+04 9.989555e-04
1.148550e+04 1.042282e-03
1.148600e+04 1.086737e-03
1.148650e+04 1.132344e-03
1.148700e+04 1.179126e-03
1.148750e+04 1.227107e-03
1.148800e+04 1.276312e-03
1.148850e+04 1.326768e-03
1.148900e+04 1.378500e-03
1.148950e+04 1.431535e-03
1.149000e+04 1.485902e-03
1.149050e+04 1.541629e-03
1.149100e+04 1.598746e-03
1.149150e+04 1.657283e-03
1.149200e+04 1.717271e-03
1.149250e+04 1.778743e-03
1.149300e+04 1.841732e-03
1.149350e+04 1.906272e-03
1.149400e+04 1.972397e-03
1.149450e+04 2.040145e-03
1.149500e+04 2.109553e-03
1.149550e+04 2.180659e-03
1.149600e+04 2.253502e-03
1.149650e+04 2.328125e-03
1.149700e+04 2.404568e-03
1.149750e+04 2.482877e-03
1.149800e+04 2.563094e-03
1.149850e+04 2.645268e-03
1.149900e+04 2.729446e-03
1.149950e+04 2.815677e-03
1.150000e+04 2.904013e-03
1.150050e+04 2.994506e-03
1.150100e+04 3.087211e-03
1.150150e+04 3.182185e-03
1.150200e+04 3.279486e-03
1.150250e+04 3.379174e-03
1.150300e+04 3.481312e-03
1.150350e+04 3.585965e-03
1.150400e+04 3.693199e-03
1.150450e+04 3.803084e-03
1.150500e+04 3.915692e-03
1.150550e+04 4.031098e-03
1.150600e+04 4.149377e-03
1.150650e+04 4.270612e-03
1.150700e+04 4.394884e-03
1.150750e+04 4.522280e-03
1.150800e+04 4.652890e-03
1.150850e+04 4.786805e-03
1.150900e+04 4.924123e-03
1.150950e+04 5.064944e-03
1.151000e+04 5.209373e-03
1.151050e+04 5.357516e-03
1.151100e+04 5.509488e-03
1.151150e+04 5.665405e-03
1.151200e+04 5.825390e-03
1.151250e+04 5.989569e-03
1.151300e+04 6.158075e-03
1.151350e+04 6.331047e-03
1.151400e+04 6.508628e-03
1.151450e+04 6.690968e-03
1.151500e+04 6.878224e-03
1.151550e+04 7.070560e-03
1.151600e+04 7.268146e-03
1.151650e+04 7.471161e-03
1.151700e+04 7.679793e-03
1.151750e+04 7.894235e-03
1.151800e+04 8.114694e-03
1.151850e+04 8.341382e-03
1.151900e+04 8.574524e-03
1.151950e+04 8.814356e-03
1.152000e+04 9.061123e-03
1.152050e+04 9.315085e-03
1.152100e+04 9.576512e-03
1.152150e+04 9.845691e-03
1.152200e+04 1.012292e-02
1.152250e+04 1.040852e-02
1.152300e+04 1.070281e-02
1.152350e+04 1.100616e-02
1.152400e+04 1.131892e-02
1.152450e+04 1.164149e-02
1.152500e+04 1.197427e-02
1.152550e+04 1.231770e-02
1.152600e+04 1.267223e-02
1.152650e+04 1.303836e-02
1.152700e+04 1.341659e-02
1.152750e+04 1.380746e-02
1.152800e+04 1.421155e-02
1.152850e+04 1.462947e-02
1.152900e+04 1.506186e-02
1.152950e+04 1.550942e-02
1.153000e+04 1.597287e-02
1.153050e+04 1.645300e-02
1.153100e+04 1.695063e-02
1.153150e+04 1.746665e-02
1.153200e+04 1.800201e-02
1.153250e+04 1.855771e-02
1.153300e+04 1.913484e-02
1.153350e+04 1.973455e-02
1.153400e+04 2.035808e-02
1.153450e+04 2.100677e-02
1.153500e+04 2.168205e-02
1.153550e+04 2.238546e-02
1.153600e+04 2.311865e-02
1.153650e+04 2.388344e-02
1.153700e+04 2.468173e-02
1.153750e+04 2.551564e-02
1.153800e+04 2.638743e-02
1.153850e+04 2.729956e-02
1.153900e+04 2.825471e-02
1.153950e+04 2.925580e-02
1.154000e+04 3.030599e-02
1.154050e+04 3.140877e-02
1.154100e+04 3.256793e-02
1.154150e+04 3.378764e-02
1.154200e+04 3.507248e-02
1.154250e+04 3.642748e-02
1.154300e+04 3.785821e-02
1.154350e+04 3.937082e-02
1.154400e+04 4.097212e-02
1.154450e+04 4.266970e-02
1.154500e+04 4.447197e-02
1.154550e+04 4.638839e-02
1.154600e+04 4.842950e-02
1.154650e+04 5.060716e-02
1.154700e+04 5.293475e-02
1.154750e+04 5.542738e-02
1.154800e+04 5.810220e-02
1.154850e+04 6.097872e-02
1.154900e+04 6.407927e-02
1.154950e+04 6.742944e-02
1.155000e+04 7.105872e-02
1.155050e+04 7.500125e-02
1.155100e+04 7.929673e-02
1.155150e+04 8.399153e-02
1.155200e+04 8.914012e-02
1.155250e+04 9.480686e-02
1.155300e+04 1.010682e-01
1.155350e+04 1.080155e-01
1.155400e+04 1.157587e-01
1.155410e+04 1.174141e-01
1.155420e+04 1.191077e-01
1.155430e+04 1.208409e-01
1.155440e+04 1.226149e-01
1.155450e+04 1.244310e-01
1.155460e+04 1.262907e-01
1.155470e+04 1.281954e-01
1.155480e+04 1.301466e-01
1.155490e+04 1.321459e-01
1.155500e+04 1.341950e-01
1.155510e+04 1.362957e-01
1.155520e+04 1.384496e-01
1.155530e+04 1.406588e-01
1.155540e+04 1.429251e-01
1.155550e+04 1.452507e-01
1.155560e+04 1.476376e-01
1.155570e+04 1.500882e-01
1.155580e+04 1.526047e-01
1.155590e+04 1.551897e-01
1.155600e+04 1.578457e-01
1.155610e+04 1.605753e-01
1.155620e+04 1.633815e-01
1.155630e+04 1.662672e-01
1.155640e+04 1.692355e-01
1.155650e+04 1.722896e-01
1.155660e+04 1.754329e-01
1.155670e+04 1.786690e-01
1.155680e+04 1.820016e-01
1.155690e+04 1.854347e-01
1.155700e+04 1.889724e-01
1.155710e+04 1.926191e-01
1.155720e+04 1.963792e-01
1.155730e+04 2.002576e-01
1.155740e+04 2.042593e-01
1.155750e+04 2.083895e-01
1.155760e+04 2.126539e-01
1.155770e+04 2.170583e-01
1.155780e+04 2.216089e-01
1.155790e+04 2.263121e-01
1.155800e+04 2.311747e-01
1.155810e+04 2.362039e-01
1.155820e+04 2.414073e-01
1.155830e+04 2.467928e-01
1.155840e+04 2.523687e-01
1.155850e+04 2.581441e-01
1.155860e+04 2.641280e-01
1.155870e+04 2.703302e-01
1.155880e+04 2.767612e-01
1.155890e+04 2.834317e-01
1.155900e+04 2.903531e-01
1.155910e+04 2.975375e-01
1.155920e+04 3.049973e-01
1.155930e+04 3.127461e-01
1.155940e+04 3.207975e-01
1.155950e+04 3.291664e-01
1.155960e+04 3.378680e-01
1.155970e+04 3.469185e-01
1.155980e+04 3.563346e-01
1.155990e+04 3.661339e-01
1.156000e+04 3.763347e-01
1.156010e+04 3.869563e-01
1.156020e+04 3.980182e-01
1.156030e+04 4.095413e-01
1.156040e+04 4.215465e-01
1.156050e+04 4.340557e-01
1.156060e+04 4.470913e-01
1.156070e+04 4.606759e-01
1.156080e+04 4.748326e-01
1.156090e+04 4.895844e-01
1.156100e+04 5.049544e-01
1.156110e+04 5.209651e-01
1.156120e+04 5.376384e-01
1.156130e+04 5.549951e-01
1.156140e+04 5.730544e-01
1.156150e+04 5.918335e-01
1.156160e+04 6.113468e-01
1.156170e+04 6.316056e-01
1.156180e+04 6.526166e-01
1.156190e+04 6.743819e-01
1.156200e+04 6.968972e-01
1.156210e+04 7.201513e-01
1.156220e+04 7.441248e-01
1.156230e+04 7.687890e-01
1.156240e+04 7.941048e-01
1.156250e+04 8.200211e-01
1.156260e+04 8.464746e-01
1.156270e+04 8.733883e-01
1.156280e+04 9.006711e-01
1.156290e+04 9.282175e-01
1.156300e+04 9.559077e-01
1.156310e+04 9.836083e-01
1.156320e+04 1.011173e+00
1.156330e+04 1.038446e+00
1.156340e+04 1.065260e+00
1.156350e+04 1.091448e+00
1.156360e+04 1.116835e+00
1.156370e+04 1.141252e+00
1.156380e+04 1.164535e+00
1.156390e+04 1.186532e+00
1.156400e+04 1.207103e+00
1.156410e+04 1.226111e+00
1.156420e+04 1.243434e+00
1.156430e+04 1.258994e+00
1.156440e+04 1.272738e+00
1.156450e+04 1.284641e+00
1.156460e+04 1.294702e+00
1.156470e+04 1.302944e+00
1.156480e+04 1.309413e+00
1.156490e+04 1.314173e+00
1.156500e+04 1.317302e+00
1.156510e+04 1.318894e+00
1.156520e+04 1.319047e+00
1.156530e+04 1.317870e+00
1.156540e+04 1.315471e+00
1.156550e+04 1.311962e+00
1.156560e+04 1.307454e+00
1.156570e+04 1.302054e+00
1.156580e+04 1.295868e+00
1.156590e+04 1.288995e+00
1.156600e+04 1.281533e+00
1.156610e+04 1.273571e+00
1.156620e+04 1.265195e+00
1.156630e+04 1.256485e+00
1.156640e+04 1.247518e+00
1.156650e+04 1.238361e+00
1.156660e+04 1.229080e+00
1.156670e+04 1.219734e+00
1.156680e+04 1.210379e+00
1.156690e+04 1.201062e+00
1.156700e+04 1.191831e+00
1.156710e+04 1.182724e+00
1.156720e+04 1.173779e+00
1.156730e+04 1.165027e+00
1.156740e+04 1.156496e+00
1.156750e+04 1.148211e+00
1.156760e+04 1.140190e+00
1.156770e+04 1.132450e+00
1.156780e+04 1.125005e+00
1.156790e+04 1.117864e+00
1.156800e+04 1.111034e+00
1.156810e+04 1.104519e+00
1.156820e+04 1.098319e+00
1.156830e+04 1.092432e+00
1.156840e+04 1.086855e+00
1.156850e+04 1.081580e+00
1.156860e+04 1.076599e+00
1.156870e+04 1.071901e+00
1.156880e+04 1.067473e+00
1.156890e+04 1.063300e+00
1.156900e+04 1.059367e+00
1.156910e+04 1.055657e+00
1.156920e+04 1.052151e+00
1.156930e+04 1.048831e+00
1.156940e+04 1.045677e+00
1.156950e+04 1.042669e+00
1.156960e+04 1.039788e+00
1.156970e+04 1.037014e+00
1.156980e+04 1.034331e+00
1.156990e+04 1.031720e+00
1.157000e+04 1.029166e+00
1.157010e+04 1.026656e+00
1.157020e+04 1.024177e+00
1.157030e+04 1.021721e+00
1.157040e+04 1.019280e+00
1.157050e+04 1.016849e+00
1.157060e+04 1.014427e+00
1.157070e+04 1.012015e+00
1.157080e+04 1.009615e+00
1.157090e+04 1.007232e+00
1.157100e+04 1.004874e+00
1.157110e+04 1.002549e+00
1.157120e+04 1.000268e+00
1.157130e+04 9.980430e-01
1.157140e+04 9.958855e-01
1.157150e+04 9.938084e-01
1.157160e+04 9.918248e-01
1.157170e+04 9.899472e-01
1.157180e+04 9.881881e-01
1.157190e+04 9.865588e-01
1.157200e+04 9.850700e-01
1.157210e+04 9.837311e-01
1.157220e+04 9.825502e-01
1.157230e+04 9.815340e-01
1.157240e+04 9.806877e-01
1.157250e+04 9.800150e-01
1.157260e+04 9.795177e-01
1.157270e+04 9.791964e-01
1.157280e+04 9.790496e-01
1.157290e+04 9.790745e-01
1.157300e+04 9.792669e-01
1.157310e+04 9.796209e-01
1.157320e+04 9.801294e-01
1.157330e+04 9.807841e-01
1.157340e+04 9.815752e-01
1.157350e+04 9.824925e-01
1.157360e+04 9.835244e-01
1.157370e+04 9.846587e-01
1.157380e+04 9.858828e-01
1.157390e+04 9.871835e-01
1.157400e+04 9.885471e-01
1.157410e+04 9.899601e-01
1.157420e+04 9.914087e-01
1.157430e+04 9.928792e-01
1.157440e+04 9.943582e-01
1.157450e+04 9.958326e-01
1.157460e+04 9.972896e-01
1.157470e+04 9.987171e-01
1.157480e+04 1.000103e+00
1.157490e+04 1.001437e+00
1.157500e+04 1.002709e+00
1.157510e+04 1.003908e+00
1.157520e+04 1.005026e+00
1.157530e+04 1.006056e+00
1.157540e+04 1.006988e+00
1.157550e+04 1.007818e+00
1.157560e+04 1.008540e+00
1.157570e+04 1.009147e+00
1.157580e+04 1.009637e+00
1.157590e+04 1.010006e+00
1.157600e+04 1.010251e+00
1.157610e+04 1.010370e+00
1.157620e+04 1.010361e+00
1.157630e+04 1.010225e+00
1.157640e+04 1.009961e+00
1.157650e+04 1.009570e+00
1.157660e+04 1.009052e+00
1.157670e+04 1.008410e+00
1.157680e+04 1.007647e+00
1.157690e+04 1.006764e+00
1.157700e+04 1.005765e+00
1.157710e+04 1.004655e+00
1.157720e+04 1.003438e+00
1.157730e+04 1.002118e+00
1.157740e+04 1.000701e+00
1.157750e+04 9.991919e-01
1.157760e+04 9.975970e-01
1.157770e+04 9.959224e-01
1.157780e+04 9.941746e-01
1.157790e+04 9.923603e-01
1.157800e+04 9.904863e-01
1.157810e+04 9.885596e-01
1.157820e+04 9.865872e-01
1.157830e+04 9.845762e-01
1.157840e+04 9.825337e-01
1.157850e+04 9.804666e-01
1.157860e+04 9.783819e-01
1.157870e+04 9.762864e-01
1.157880e+04 9.741866e-01
1.157890e+04 9.720888e-01
1.157900e+04 9.699992e-01
1.157910e+04 9.679235e-01
1.157920e+04 9.658672e-01
1.157930e+04 9.638356e-01
1.157940e+04 9.618334e-01
1.157950e+04 9.598650e-01
1.157960e+04 9.579347e-01
1.157970e+04 9.560459e-01
1.157980e+04 9.542022e-01
1.157990e+04 9.524063e-01
1.158000e+04 9.506610e-01
1.158010e+04 9.489684e-01
1.158020e+04 9.473305e-01
1.158030e+04 9.457487e-01
1.158040e+04 9.442243e-01
1.158050e+04 9.427583e-01
1.158060e+04 9.413514e-01
1.158070e+04 9.400039e-01
1.158080e+04 9.387161e-01
1.158090e+04 9.374879e-01
1.158100e+04 9.363190e-01
1.158110e+04 9.352092e-01
1.158120e+04 9.341579e-01
1.158130e+04 9.331643e-01
1.158140e+04 9.322278e-01
1.158150e+04 9.313474e-01
1.158160e+04 9.305222e-01
1.158170e+04 9.297511e-01
1.158180e+04 9.290330e-01
1.158190e+04 9.283668e-01
1.158200e+04 9.277512e-01
1.158210e+04 9.271852e-01
1.158220e+04 9.266674e-01
1.158230e+04 9.261967e-01
1.158240e+04 9.257718e-01
1.158250e+04 9.253914e-01
1.158260e+04 9.250543e-01
1.158270e+04 9.247593e-01
1.158280e+04 9.245052e-01
1.158290e+04 9.242907e-01
1.158300e+04 9.241147e-01
1.158310e+04 9.239759e-01
1.158320e+04 9.238733e-01
1.158330e+04 9.238057e-01
1.158340e+04 9.237720e-01
1.158350e+04 9.237711e-01
1.158360e+04 9.238018e-01
1.158370e+04 9.238632e-01
1.158380e+04 9.239542e-01
1.158390e+04 9.240738e-01
1.158400e+04 9.242210e-01
1.158410e+04 9.243948e-01
1.158420e+04 9.245943e-01
1.158430e+04 9.248185e-01
1.158440e+04 9.250665e-01
1.158450e+04 9.253374e-01
1.158460e+04 9.256304e-01
1.158470e+04 9.259444e-01
1.158480e+04 9.262788e-01
1.158490e+04 9.266327e-01
1.158500e+04 9.270052e-01
1.158510e+04 9.273955e-01
1.158520e+04 9.278029e-01
1.158530e+04 9.282265e-01
1.158540e+04 9.286656e-01
1.158550e+04 9.291195e-01
1.158560e+04 9.295874e-01
1.158570e+04 9.300685e-01
1.158580e+04 9.305621e-01
1.158590e+04 9.310676e-01
1.158600e+04 9.315841e-01
1.158610e+04 9.321111e-01
1.158620e+04 9.326478e-01
1.158630e+04 9.331936e-01
1.158640e+04 9.337477e-01
1.158650e+04 9.343096e-01
1.158660e+04 9.348785e-01
1.158670e+04 9.354538e-01
1.158680e+04 9.360349e-01
1.158690e+04 9.366212e-01
1.158700e+04 9.372120e-01
1.158710e+04 9.378066e-01
1.158720e+04 9.384046e-01
1.158730e+04 9.390053e-01
1.158740e+04 9.396081e-01
1.158750e+04 9.402124e-01
1.158760e+04 9.408177e-01
1.158770e+04 9.414234e-01
1.158780e+04 9.420288e-01
1.158790e+04 9.426336e-01
1.158800e+04 9.432372e-01
1.158810e+04 9.438390e-01
1.158820e+04 9.444384e-01
1.158830e+04 9.450351e-01
1.158840e+04 9.456286e-01
1.158850e+04 9.462182e-01
1.158860e+04 9.468037e-01
1.158870e+04 9.473845e-01
1.158880e+04 9.479601e-01
1.158890e+04 9.485303e-01
1.158900e+04 9.490945e-01
1.158910e+04 9.496524e-01
1.158920e+04 9.502035e-01
1.158930e+04 9.507476e-01
1.158940e+04 9.512843e-01
1.158950e+04 9.518132e-01
1.158960e+04 9.523340e-01
1.158970e+04 9.528465e-01
1.158980e+04 9.533503e-01
1.158990e+04 9.538453e-01
1.159000e+04 9.543310e-01
1.159010e+04 9.548074e-01
1.159020e+04 9.552743e-01
1.159030e+04 9.557313e-01
1.159040e+04 9.561785e-01
1.159050e+04 9.566155e-01
1.159060e+04 9.570424e-01
1.159070e+04 9.574589e-01
1.159080e+04 9.578649e-01
1.159090e+04 9.582605e-01
1.159100e+04 9.586454e-01
1.159110e+04 9.590198e-01
1.159120e+04 9.593836e-01
1.159130e+04 9.597366e-01
1.159140e+04 9.600791e-01
1.159150e+04 9.604109e-01
1.159160e+04 9.607322e-01
1.159170e+04 9.610430e-01
1.159180e+04 9.613433e-01
1.159190e+04 9.616333e-01
1.159200e+04 9.619130e-01
1.159210e+04 9.621826e-01
1.159220e+04 9.624422e-01
1.159230e+04 9.626919e-01
1.159240e+04 9.629319e-01
1.159250e+04 9.631623e-01
1.159260e+04 9.633834e-01
1.159270e+04 9.635952e-01
1.159280e+04 9.637980e-01
1.159290e+04 9.639920e-01
1.159300e+04 9.641774e-01
1.159310e+04 9.643545e-01
1.159320e+04 9.645233e-01
1.159330e+04 9.646842e-01
1.159340e+04 9.648374e-01
1.159350e+04 9.649832e-01
1.159360e+04 9.651217e-01
1.159370e+04 9.652532e-01
1.159380e+04 9.653779e-01
1.159390e+04 9.654962e-01
1.159400e+04 9.656082e-01
1.159450e+04 9.660832e-01
1.159500e+04 9.664390e-01
1.159550e+04 9.667049e-01
1.159600e+04 9.669078e-01
1.159650e+04 9.670713e-01
1.159700e+04 9.672153e-01
1.159750e+04 9.673564e-01
1.159800e+04 9.675081e-01
1.159850e+04 9.676816e-01
1.159900e+04 9.678865e-01
1.159950e+04 9.681320e-01
1.160000e+04 9.684274e-01
1.160050e+04 9.687832e-01
1.160100e+04 9.692111e-01
1.160150e+04 9.697243e-01
1.160200e+04 9.703374e-01
1.160250e+04 9.710661e-01
1.160300e+04 9.719258e-01
1.160350e+04 9.729318e-01
1.160400e+04 9.740976e-01
1.160450e+04 9.754345e-01
1.160500e+04 9.769508e-01
1.160550e+04 9.786514e-01
1.160600e+04 9.805371e-01
1.160650e+04 9.826046e-01
1.160700e+04 9.848469e-01
1.160750e+04 9.872527e-01
1.160800e+04 9.898072e-01
1.160850e+04 9.924924e-01
1.160900e+04 9.952875e-01
1.160950e+04 9.981690e-01
1.161000e+04 1.001112e+00
1.161050e+04 1.004089e+00
1.161100e+04 1.007074e+00
1.161150e+04 1.010037e+00
1.161200e+04 1.012952e+00
1.161250e+04 1.015791e+00
1.161300e+04 1.018529e+00
1.161350e+04 1.021141e+00
1.161400e+04 1.023608e+00
1.161450e+04 1.025911e+00
1.161500e+04 1.028036e+00
1.161550e+04 1.029972e+00
1.161600e+04 1.031712e+00
1.161650e+04 1.033254e+00
1.161700e+04 1.034599e+00
1.161750e+04 1.035752e+00
1.161800e+04 1.036719e+00
1.161850e+04 1.037511e+00
1.161900e+04 1.038139e+00
1.161950e+04 1.038615e+00
1.162000e+04 1.038952e+00
1.162050e+04 1.039163e+00
1.162100e+04 1.039259e+00
1.162150e+04 1.039253e+00
1.162200e+04 1.039154e+00
