# energy(eV) normalized_intensity
1.141400e+04 6.369536e-04
1.141450e+04 6.191631e-04
1.141500e+04 6.015206e-04
1.141550e+04 5.840273e-04
1.141600e+04 5.666847e-04
1.141650e+04 5.494949e-04
1.141700e+04 5.324591e-04
1.141750e+04 5.155789e-04
1.141800e+04 4.988561e-04
1.141850e+04 4.822926e-04
1.141900e+04 4.658896e-04
1.141950e+04 4.496490e-04
1.142000e+04 4.335730e-04
1.142050e+04 4.176628e-04
1.142100e+04 4.019202e-04
1.142150e+04 3.863476e-04
1.142200e+04 3.709464e-04
1.142250e+04 3.557183e-04
1.142300e+04 3.406658e-04
1.142350e+04 3.257905e-04
1.142400e+04 3.110942e-04
1.142450e+04 2.965792e-04
1.142500e+04 2.822474e-04
1.142550e+04 2.681008e-04
1.142600e+04 2.541415e-04
1.142650e+04 2.403717e-04
1.142700e+04 2.267934e-04
1.142750e+04 2.134089e-04
1.142800e+04 2.002204e-04
1.142850e+04 1.872302e-04
1.142900e+04 1.744404e-04
1.142950e+04 1.618534e-04
1.143000e+04 1.494719e-04
1.143050e+04 1.372975e-04
1.143100e+04 1.253334e-04
1.143150e+04 1.135816e-04
1.143200e+04 1.020449e-04
1.143250e+04 9.072557e-05
1.143300e+04 7.962649e-05
1.143350e+04 6.874992e-05
1.143400e+04 5.809900e-05
1.143450e+04 4.767571e-05
1.143500e+04 3.748347e-05
1.143550e+04 2.752484e-05
1.143600e+04 1.780266e-05
1.143650e+04 8.319785e-06
1.143700e+04 -9.206589e-07
1.143750e+04 -9.916112e-06
1.143800e+04 -1.866316e-05
1.143850e+04 -2.715895e-05
1.143900e+04 -3.540008e-05
1.143950e+04 -4.338370e-05
1.144000e+04 -5.110640e-05
1.144050e+04 -5.856504e-05
1.144100e+04 -6.575592e-05
1.144150e+04 -7.267592e-05
1.144200e+04 -7.932163e-05
1.144250e+04 -8.568961e-05
1.144300e+04 -9.177591e-05
1.144350e+04 -9.757709e-05
1.144400e+04 -1.030895e-04
1.144450e+04 -1.083093e-04
1.144500e+04 -1.132327e-04
1.144550e+04 -1.178556e-04
1.144600e+04 -1.221746e-04
1.144650e+04 -1.261849e-04
1.144700e+04 -1.298830e-04
1.144750e+04 -1.332645e-04
1.144800e+04 -1.363252e-04
1.144850e+04 -1.390605e-04
1.144900e+04 -1.414665e-04
1.144950e+04 -1.435382e-04
1.145000e+04 -1.452710e-04
1.145050e+04 -1.466610e-04
1.145100e+04 -1.477026e-04
1.145150e+04 -1.483915e-04
1.145200e+04 -1.487224e-04
1.145250e+04 -1.486905e-04
1.145300e+04 -1.482909e-04
1.145350e+04 -1.475178e-04
1.145400e+04 -1.463665e-04
1.145450e+04 -1.448317e-04
1.145500e+04 -1.429070e-04
1.145550e+04 -1.405877e-04
1.145600e+04 -1.378677e-04
1.145650e+04 -1.347414e-04
1.145700e+04 -1.312026e-04
1.145750e+04 -1.272454e-04
1.145800e+04 -1.228635e-04
1.145850e+04 -1.180508e-04
1.145900e+04 -1.128004e-04
1.145950e+04 -1.071064e-04
1.146000e+04 -1.009620e-04
1.146050e+04 -9.436012e-05
1.146100e+04 -8.729383e-05
1.146150e+04 -7.975605e-05
1.146200e+04 -7.173969e-05
1.146250e+04 -6.323732e-05
1.146300e+04 -5.424157e-05
1.146350e+04 -4.474447e-05
1.146400e+04 -3.473832e-05
1.146450e+04 -2.421488e-05
1.146500e+04 -1.316618e-05
1.146550e+04 -1.583975e-06
1.146600e+04 1.054056e-05
1.146650e+04 2.321597e-05
1.146700e+04 3.645134e-05
1.146750e+04 5.025551e-05
1.146800e+04 6.463786e-05
1.146850e+04 7.960806e-05
1.146900e+04 9.517551e-05
1.146950e+04 1.113505e-04
1.147000e+04 1.281428e-04
1.147050e+04 1.455629e-04
1.147100e+04 1.636215e-04
1.147150e+04 1.823294e-04
1.147200e+04 2.016977e-04
1.147250e+04 2.217378e-04
1.147300e+04 2.424614e-04
1.147350e+04 2.638798e-04
1.147400e+04 2.860058e-04
1.147450e+04 3.088515e-04
1.147500e+04 3.324295e-04
1.147550e+04 3.567533e-04
1.147600e+04 3.818357e-04
1.147650e+04 4.076906e-04
1.147700e+04 4.343320e-04
1.147750e+04 4.617740e-04
1.147800e+04 4.900319e-04
1.147850e+04 5.191197e-04
1.147900e+04 5.490537e-04
1.147950e+04 5.798493e-04
1.148000e+04 6.115225e-04
1.148050e+04 6.440902e-04
1.148100e+04 6.775693e-04
1.148150e+04 7.119771e-04
1.148200e+04 7.473316e-04
1.148250e+04 7.836509e-04
1.148300e+04 8.209541e-04
1.148350e+04 8.592604e-04
1.148400e+04 8.985896e-04
1.148450e+04 9.389618e-04
1.148500e+04 9.803983e-04
1.148550e+04 1.022920e-03
1.148600e+04 1.066550e-03
1.148650e+04 1.111309e-03
1.148700e+04 1.157222e-03
1.148750e+04 1.204312e-03
1.148800e+04 1.252603e-03
1.148850e+04 1.302121e-03
1.148900e+04 1.352892e-03
1.148950e+04 1.404943e-03
1.149000e+04 1.458300e-03
1.149050e+04 1.512992e-03
1.149100e+04 1.569048e-03
1.149150e+04 1.626498e-03
1.149200e+04 1.685372e-03
1.149250e+04 1.745702e-03
1.149300e+04 1.807520e-03
1.149350e+04 1.870861e-03
1.149400e+04 1.935759e-03
1.149450e+04 2.002248e-03
1.149500e+04 2.070367e-03
1.149550e+04 2.140152e-03
1.149600e+04 2.211642e-03
1.149650e+04 2.284879e-03
1.149700e+04 2.359903e-03
1.149750e+04 2.436756e-03
1.149800e+04 2.515484e-03
1.149850e+04 2.596132e-03
1.149900e+04 2.678746e-03
1.149950e+04 2.763376e-03
1.150000e+04 2.850071e-03
1.150050e+04 2.938883e-03
1.150100e+04 3.029867e-03
1.150150e+04 3.123077e-03
1.150200e+04 3.218570e-03
1.150250e+04 3.316407e-03
1.150300e+04 3.416648e-03
1.150350e+04 3.519357e-03
1.150400e+04 3.624599e-03
1.150450e+04 3.732444e-03
1.150500e+04 3.842960e-03
1.150550e+04 3.956222e-03
1.150600e+04 4.072305e-03
1.150650e+04 4.191288e-03
1.150700e+04 4.313253e-03
1.150750e+04 4.438282e-03
1.150800e+04 4.566466e-03
1.150850e+04 4.697895e-03
1.150900e+04 4.832662e-03
1.150950e+04 4.970868e-03
1.151000e+04 5.112614e-03
1.151050e+04 5.258006e-03
1.151100e+04 5.407156e-03
1.151150e+04 5.560177e-03
1.151200e+04 5.717191e-03
1.151250e+04 5.878321e-03
1.151300e+04 6.043698e-03
1.151350e+04 6.213457e-03
1.151400e+04 6.387740e-03
1.151450e+04 6.566694e-03
1.151500e+04 6.750472e-03
1.151550e+04 6.939236e-03
1.151600e+04 7.133153e-03
1.151650e+04 7.332398e-03
1.151700e+04 7.537155e-03
1.151750e+04 7.747615e-03
1.151800e+04 7.963979e-03
1.151850e+04 8.186458e-03
1.151900e+04 8.415270e-03
1.151950e+04 8.650648e-03
1.152000e+04 8.892833e-03
1.152050e+04 9.142078e-03
1.152100e+04 9.398651e-03
1.152150e+04 9.662831e-03
1.152200e+04 9.934913e-03
1.152250e+04 1.021521e-02
1.152300e+04 1.050404e-02
1.152350e+04 1.080175e-02
1.152400e+04 1.110870e-02
1.152450e+04 1.142528e-02
1.152500e+04 1.175188e-02
1.152550e+04 1.208893e-02
1.152600e+04 1.243688e-02
1.152650e+04 1.279621e-02
1.152700e+04 1.316741e-02
1.152750e+04 1.355103e-02
1.152800e+04 1.394761e-02
1.152850e+04 1.435777e-02
1.152900e+04 1.478214e-02
1.152950e+04 1.522138e-02
1.153000e+04 1.567623e-02
1.153050e+04 1.614744e-02
1.153100e+04 1.663583e-02
1.153150e+04 1.714227e-02
1.153200e+04 1.766769e-02
1.153250e+04 1.821307e-02
1.153300e+04 1.877948e-02
1.153350e+04 1.936805e-02
1.153400e+04 1.998000e-02
1.153450e+04 2.061665e-02
1.153500e+04 2.127939e-02
1.153550e+04 2.196973e-02
1.153600e+04 2.268932e-02
1.153650e+04 2.343990e-02
1.153700e+04 2.422337e-02
1.153750e+04 2.504179e-02
1.153800e+04 2.589739e-02
1.153850e+04 2.679259e-02
1.153900e+04 2.773000e-02
1.153950e+04 2.871250e-02
1.154000e+04 2.974319e-02
1.154050e+04 3.082549e-02
1.154100e+04 3.196313e-02
1.154150e+04 3.316019e-02
1.154200e+04 3.442117e-02
1.154250e+04 3.575101e-02
1.154300e+04 3.715518e-02
1.154350e+04 3.863970e-02
1.154400e+04 4.021126e-02
1.154450e+04 4.187731e-02
1.154500e+04 4.364613e-02
1.154550e+04 4.552695e-02
1.154600e+04 4.753016e-02
1.154650e+04 4.966739e-02
1.154700e+04 5.195176e-02
1.154750e+04 5.439810e-02
1.154800e+04 5.702326e-02
1.154850e+04 5.984637e-02
1.154900e+04 6.288934e-02
1.154950e+04 6.617730e-02
1.155000e+04 6.973919e-02
1.155050e+04 7.360852e-02
1.155100e+04 7.782424e-02
1.155150e+04 8.243186e-02
1.155200e+04 8.748485e-02
1.155250e+04 9.304637e-02
1.155300e+04 9.919143e-02
1.155350e+04 1.060097e-01
1.155400e+04 1.136091e-01
1.155410e+04 1.152338e-01
1.155420e+04 1.168960e-01
1.155430e+04 1.185970e-01
1.155440e+04 1.203380e-01
1.155450e+04 1.221204e-01
1.155460e+04 1.239456e-01
1.155470e+04 1.258149e-01
1.155480e+04 1.277299e-01
1.155490e+04 1.296921e-01
1.155500e+04 1.317032e-01
1.155510e+04 1.337648e-01
1.155520e+04 1.358788e-01
1.155530e+04 1.380469e-01
1.155540e+04 1.402711e-01
1.155550e+04 1.425535e-01
1.155560e+04 1.448961e-01
1.155570e+04 1.473012e-01
1.155580e+04 1.497710e-01
1.155590e+04 1.523080e-01
1.155600e+04 1.549146e-01
1.155610e+04 1.575936e-01
1.155620e+04 1.603477e-01
1.155630e+04 1.631798e-01
1.155640e+04 1.660930e-01
1.155650e+04 1.690904e-01
1.155660e+04 1.721753e-01
1.155670e+04 1.753513e-01
1.155680e+04 1.786221e-01
1.155690e+04 1.819914e-01
1.155700e+04 1.854634e-01
1.155710e+04 1.890424e-01
1.155720e+04 1.927327e-01
1.155730e+04 1.965390e-01
1.155740e+04 2.004664e-01
1.155750e+04 2.045200e-01
1.155760e+04 2.087052e-01
1.155770e+04 2.130278e-01
1.155780e+04 2.174939e-01
1.155790e+04 2.221097e-01
1.155800e+04 2.268821e-01
1.155810e+04 2.318179e-01
1.155820e+04 2.369247e-01
1.155830e+04 2.422102e-01
1.155840e+04 2.476826e-01
1.155850e+04 2.533507e-01
1.155860e+04 2.592235e-01
1.155870e+04 2.653106e-01
1.155880e+04 2.716222e-01
1.155890e+04 2.781688e-01
1.155900e+04 2.849617e-01
1.155910e+04 2.920126e-01
1.155920e+04 2.993340e-01
1.155930e+04 3.069388e-01
1.155940e+04 3.148408e-01
1.155950e+04 3.230543e-01
1.155960e+04 3.315944e-01
1.155970e+04 3.404767e-01
1.155980e+04 3.497180e-01
1.155990e+04 3.593353e-01
1.156000e+04 3.693468e-01
1.156010e+04 3.797711e-01
1.156020e+04 3.906277e-01
1.156030e+04 4.019367e-01
1.156040e+04 4.137190e-01
1.156050e+04 4.259960e-01
1.156060e+04 4.387895e-01
1.156070e+04 4.521219e-01
1.156080e+04 4.660157e-01
1.156090e+04 4.804937e-01
1.156100e+04 4.955783e-01
1.156110e+04 5.112917e-01
1.156120e+04 5.276554e-01
1.156130e+04 5.446898e-01
1.156140e+04 5.624138e-01
1.156150e+04 5.808442e-01
1.156160e+04 5.999952e-01
1.156170e+04 6.198778e-01
1.156180e+04 6.404987e-01
1.156190e+04 6.618598e-01
1.156200e+04 6.839570e-01
1.156210e+04 7.067793e-01
1.156220e+04 7.303078e-01
1.156230e+04 7.545140e-01
1.156240e+04 7.793597e-01
1.156250e+04 8.047948e-01
1.156260e+04 8.307571e-01
1.156270e+04 8.571711e-01
1.156280e+04 8.839473e-01
1.156290e+04 9.109822e-01
1.156300e+04 9.381583e-01
1.156310e+04 9.653445e-01
1.156320e+04 9.923976e-01
1.156330e+04 1.019164e+00
1.156340e+04 1.045481e+00
1.156350e+04 1.071182e+00
1.156360e+04 1.096097e+00
1.156370e+04 1.120061e+00
1.156380e+04 1.142912e+00
1.156390e+04 1.164500e+00
1.156400e+04 1.184690e+00
1.156410e+04 1.203361e+00
1.156420e+04 1.220416e+00
1.156430e+04 1.235779e+00
1.156440e+04 1.249400e+00
1.156450e+04 1.261253e+00
1.156460e+04 1.271335e+00
1.156470e+04 1.279667e+00
1.156480e+04 1.286288e+00
1.156490e+04 1.291257e+00
1.156500e+04 1.294645e+00
1.156510e+04 1.296539e+00
1.156520e+04 1.297029e+00
1.156530e+04 1.296215e+00
1.156540e+04 1.294201e+00
1.156550e+04 1.291090e+00
1.156560e+04 1.286985e+00
1.156570e+04 1.281989e+00
1.156580e+04 1.276201e+00
1.156590e+04 1.269716e+00
1.156600e+04 1.262626e+00
1.156610e+04 1.255019e+00
1.156620e+04 1.246976e+00
1.156630e+04 1.238574e+00
1.156640e+04 1.229888e+00
1.156650e+04 1.220985e+00
1.156660e+04 1.211928e+00
1.156670e+04 1.202777e+00
1.156680e+04 1.193586e+00
1.156690e+04 1.184405e+00
1.156700e+04 1.175281e+00
1.156710e+04 1.166255e+00
1.156720e+04 1.157365e+00
1.156730e+04 1.148645e+00
1.156740e+04 1.140126e+00
1.156750e+04 1.131833e+00
1.156760e+04 1.123791e+00
1.156770e+04 1.116018e+00
1.156780e+04 1.108530e+00
1.156790e+04 1.101342e+00
1.156800e+04 1.094462e+00
1.156810e+04 1.087899e+00
1.156820e+04 1.081656e+00
1.156830e+04 1.075736e+00
1.156840e+04 1.070137e+00
1.156850e+04 1.064855e+00
1.156860e+04 1.059886e+00
1.156870e+04 1.055220e+00
1.156880e+04 1.050848e+00
1.156890e+04 1.046756e+00
1.156900e+04 1.042931e+00
1.156910e+04 1.039355e+00
1.156920e+04 1.036011e+00
1.156930e+04 1.032878e+00
1.156940e+04 1.029935e+00
1.156950e+04 1.027161e+00
1.156960e+04 1.024530e+00
1.156970e+04 1.022021e+00
1.156980e+04 1.019609e+00
1.156990e+04 1.017270e+00
1.157000e+04 1.014983e+00
1.157010e+04 1.012724e+00
1.157020e+04 1.010475e+00
1.157030e+04 1.008219e+00
1.157040e+04 1.005939e+00
1.157050e+04 1.003624e+00
1.157060e+04 1.001265e+00
1.157070e+04 9.988568e-01
1.157080e+04 9.963980e-01
1.157090e+04 9.938903e-01
1.157100e+04 9.913393e-01
1.157110e+04 9.887539e-01
1.157120e+04 9.861461e-01
1.157130e+04 9.835307e-01
1.157140e+04 9.809251e-01
1.157150e+04 9.783482e-01
1.157160e+04 9.758206e-01
1.157170e+04 9.733640e-01
1.157180e+04 9.710004e-01
1.157190e+04 9.687519e-01
1.157200e+04 9.666403e-01
1.157210e+04 9.646866e-01
1.157220e+04 9.629109e-01
1.157230e+04 9.613316e-01
1.157240e+04 9.599658e-01
1.157250e+04 9.588286e-01
1.157260e+04 9.579332e-01
1.157270e+04 9.572907e-01
1.157280e+04 9.569101e-01
1.157290e+04 9.567979e-01
1.157300e+04 9.569585e-01
1.157310e+04 9.573939e-01
1.157320e+04 9.581039e-01
1.157330e+04 9.590858e-01
1.157340e+04 9.603348e-01
1.157350e+04 9.618438e-01
1.157360e+04 9.636037e-01
1.157370e+04 9.656034e-01
1.157380e+04 9.678297e-01
1.157390e+04 9.702678e-01
1.157400e+04 9.729012e-01
1.157410e+04 9.757121e-01
1.157420e+04 9.786815e-01
1.157430e+04 9.817892e-01
1.157440e+04 9.850145e-01
1.157450e+04 9.883361e-01
1.157460e+04 9.917322e-01
1.157470e+04 9.951812e-01
1.157480e+04 9.986616e-01
1.157490e+04 1.002152e+00
1.157500e+04 1.005633e+00
1.157510e+04 1.009083e+00
1.157520e+04 1.012484e+00
1.157530e+04 1.015818e+00
1.157540e+04 1.019068e+00
1.157550e+04 1.022219e+00
1.157560e+04 1.025255e+00
1.157570e+04 1.028164e+00
1.157580e+04 1.030932e+00
1.157590e+04 1.033549e+00
1.157600e+04 1.036004e+00
1.157610e+04 1.038289e+00
1.157620e+04 1.040394e+00
1.157630e+04 1.042313e+00
1.157640e+04 1.044038e+00
1.157650e+04 1.045564e+00
1.157660e+04 1.046886e+00
1.157670e+04 1.047998e+00
1.157680e+04 1.048896e+00
1.157690e+04 1.049576e+00
1.157700e+04 1.050034e+00
1.157710e+04 1.050267e+00
1.157720e+04 1.050272e+00
1.157730e+04 1.050046e+00
1.157740e+04 1.049586e+00
1.157750e+04 1.048890e+00
1.157760e+04 1.047956e+00
1.157770e+04 1.046782e+00
1.157780e+04 1.045367e+00
1.157790e+04 1.043712e+00
1.157800e+04 1.041816e+00
1.157810e+04 1.039682e+00
1.157820e+04 1.037311e+00
1.157830e+04 1.034708e+00
1.157840e+04 1.031878e+00
1.157850e+04 1.028827e+00
1.157860e+04 1.025563e+00
1.157870e+04 1.022095e+00
1.157880e+04 1.018435e+00
1.157890e+04 1.014594e+00
1.157900e+04 1.010585e+00
1.157910e+04 1.006423e+00
1.157920e+04 1.002122e+00
1.157930e+04 9.976984e-01
1.157940e+04 9.931690e-01
1.157950e+04 9.885511e-01
1.157960e+04 9.838622e-01
1.157970e+04 9.791206e-01
1.157980e+04 9.743444e-01
1.157990e+04 9.695522e-01
1.158000e+04 9.647628e-01
1.158010e+04 9.599948e-01
1.158020e+04 9.552667e-01
1.158030e+04 9.505970e-01
1.158040e+04 9.460038e-01
1.158050e+04 9.415044e-01
1.158060e+04 9.371159e-01
1.158070e+04 9.328541e-01
1.158080e+04 9.287340e-01
1.158090e+04 9.247693e-01
1.158100e+04 9.209721e-01
1.158110e+04 9.173532e-01
1.158120e+04 9.139215e-01
1.158130e+04 9.106839e-01
1.158140e+04 9.076457e-01
1.158150e+04 9.048101e-01
1.158160e+04 9.021783e-01
1.158170e+04 8.997496e-01
1.158180e+04 8.975212e-01
1.158190e+04 8.954889e-01
1.158200e+04 8.936465e-01
1.158210e+04 8.919864e-01
1.158220e+04 8.904996e-01
1.158230e+04 8.891759e-01
1.158240e+04 8.880042e-01
1.158250e+04 8.869727e-01
1.158260e+04 8.860691e-01
1.158270e+04 8.852808e-01
1.158280e+04 8.845951e-01
1.158290e+04 8.839998e-01
1.158300e+04 8.834831e-01
1.158310e+04 8.830339e-01
1.158320e+04 8.826421e-01
1.158330e+04 8.822986e-01
1.158340e+04 8.819960e-01
1.158350e+04 8.817279e-01
1.158360e+04 8.814898e-01
1.158370e+04 8.812786e-01
1.158380e+04 8.810929e-01
1.158390e+04 8.809331e-01
1.158400e+04 8.808008e-01
1.158410e+04 8.806994e-01
1.158420e+04 8.806334e-01
1.158430e+04 8.806085e-01
1.158440e+04 8.806313e-01
1.158450e+04 8.807091e-01
1.158460e+04 8.808498e-01
1.158470e+04 8.810616e-01
1.158480e+04 8.813526e-01
1.158490e+04 8.817309e-01
1.158500e+04 8.822039e-01
1.158510e+04 8.827787e-01
1.158520e+04 8.834617e-01
1.158530e+04 8.842580e-01
1.158540e+04 8.851723e-01
1.158550e+04 8.862077e-01
1.158560e+04 8.873665e-01
1.158570e+04 8.886500e-01
1.158580e+04 8.900582e-01
1.158590e+04 8.915904e-01
1.158600e+04 8.932450e-01
1.158610e+04 8.950197e-01
1.158620e+04 8.969119e-01
1.158630e+04 8.989184e-01
1.158640e+04 9.010362e-01
1.158650e+04 9.032622e-01
1.158660e+04 9.055938e-01
1.158670e+04 9.080287e-01
1.158680e+04 9.105654e-01
1.158690e+04 9.132031e-01
1.158700e+04 9.159416e-01
1.158710e+04 9.187820e-01
1.158720e+04 9.217259e-01
1.158730e+04 9.247757e-01
1.158740e+04 9.279349e-01
1.158750e+04 9.312072e-01
1.158760e+04 9.345969e-01
1.158770e+04 9.381086e-01
1.158780e+04 9.417469e-01
1.158790e+04 9.455163e-01
1.158800e+04 9.494211e-01
1.158810e+04 9.534649e-01
1.158820e+04 9.576507e-01
1.158830e+04 9.619803e-01
1.158840e+04 9.664547e-01
1.158850e+04 9.710736e-01
1.158860e+04 9.758348e-01
1.158870e+04 9.807352e-01
1.158880e+04 9.857693e-01
1.158890e+04 9.909302e-01
1.158900e+04 9.962090e-01
1.158910e+04 1.001595e+00
1.158920e+04 1.007074e+00
1.158930e+04 1.012632e+00
1.158940e+04 1.018252e+00
1.158950e+04 1.023914e+00
1.158960e+04 1.029597e+00
1.158970e+04 1.035279e+00
1.158980e+04 1.040934e+00
1.158990e+04 1.046536e+00
1.159000e+04 1.052059e+00
1.159010e+04 1.057473e+00
1.159020e+04 1.062750e+00
1.159030e+04 1.067861e+00
1.159040e+04 1.072776e+00
1.159050e+04 1.077468e+00
1.159060e+04 1.081908e+00
1.159070e+04 1.086070e+00
1.159080e+04 1.089929e+00
1.159090e+04 1.093464e+00
1.159100e+04 1.096654e+00
1.159110e+04 1.099483e+00
1.159120e+04 1.101936e+00
1.159130e+04 1.104003e+00
1.159140e+04 1.105677e+00
1.159150e+04 1.106954e+00
1.159160e+04 1.107834e+00
1.159170e+04 1.108321e+00
1.159180e+04 1.108423e+00
1.159190e+04 1.108149e+00
1.159200e+04 1.107514e+00
1.159210e+04 1.106533e+00
1.159220e+04 1.105226e+00
1.159230e+04 1.103613e+00
1.159240e+04 1.101719e+00
1.159250e+04 1.099567e+00
1.159260e+04 1.097182e+00
1.159270e+04 1.094592e+00
1.159280e+04 1.091823e+00
1.159290e+04 1.088901e+00
1.159300e+04 1.085852e+00
1.159310e+04 1.082702e+00
1.159320e+04 1.079474e+00
1.159330e+04 1.076192e+00
1.159340e+04 1.072876e+00
1.159350e+04 1.069547e+00
1.159360e+04 1.066223e+00
1.159370e+04 1.062919e+00
1.159380e+04 1.059650e+00
1.159390e+04 1.056427e+00
1.159400e+04 1.053260e+00
1.159450e+04 1.038496e+00
1.159500e+04 1.025717e+00
1.159550e+04 1.014795e+00
1.159600e+04 1.005563e+00
1.159650e+04 9.981636e-01
1.159700e+04 9.930461e-01
1.159750e+04 9.906786e-01
1.159800e+04 9.911798e-01
1.159850e+04 9.940768e-01
1.159900e+04 9.982955e-01
1.159950e+04 1.002376e+00
1.160000e+04 1.004840e+00
1.160050e+04 1.004574e+00
1.160100e+04 1.001109e+00
1.160150e+04 9.946882e-01
1.160200e+04 9.861260e-01
1.160250e+04 9.765476e-01
1.160300e+04 9.671180e-01
1.160350e+04 9.588441e-01
1.160400e+04 9.524677e-01
1.160450e+04 9.484345e-01
1.160500e+04 9.469103e-01
1.160550e+04 9.478227e-01
1.160600e+04 9.509161e-01
1.160650e+04 9.558225e-01
1.160700e+04 9.621450e-01
1.160750e+04 9.695369e-01
1.160800e+04 9.777486e-01
1.160850e+04 9.866263e-01
1.160900e+04 9.960747e-01
1.160950e+04 1.006012e+00
1.161000e+04 1.016348e+00
1.161050e+04 1.026984e+00
1.161100e+04 1.037824e+00
1.161150e+04 1.048788e+00
1.161200e+04 1.059790e+00
1.161250e+04 1.070719e+00
1.161300e+04 1.081400e+00
1.161350e+04 1.091567e+00
1.161400e+04 1.100863e+00
1.161450e+04 1.108865e+00
1.161500e+04 1.115153e+00
1.161550e+04 1.119392e+00
1.161600e+04 1.121421e+00
1.161650e+04 1.121307e+00
1.161700e+04 1.119344e+00
1.161750e+04 1.116004e+00
1.161800e+04 1.111837e+00
1.161850e+04 1.107368e+00
1.161900e+04 1.103017e+00
1.161950e+04 1.099049e+00
1.162000e+04 1.095580e+00
1.162050e+04 1.092595e+00
1.162100e+04 1.089999e+00
1.162150e+04 1.087664e+00
1.162200e+04 1.085465e+00
