# energy(eV) normalized_intensity
1.141400e+04 6.382469e-04
1.141450e+04 6.204199e-04
1.141500e+04 6.027412e-04
1.141550e+04 5.852119e-04
1.141600e+04 5.678337e-04
1.141650e+04 5.506087e-04
1.141700e+04 5.335380e-04
1.141750e+04 5.166232e-04
1.141800e+04 4.998662e-04
1.141850e+04 4.832688e-04
1.141900e+04 4.668323e-04
1.141950e+04 4.505586e-04
1.142000e+04 4.344497e-04
1.142050e+04 4.185071e-04
1.142100e+04 4.027324e-04
1.142150e+04 3.871280e-04
1.142200e+04 3.716955e-04
1.142250e+04 3.564364e-04
1.142300e+04 3.413532e-04
1.142350e+04 3.264477e-04
1.142400e+04 3.117216e-04
1.142450e+04 2.971770e-04
1.142500e+04 2.828162e-04
1.142550e+04 2.686409e-04
1.142600e+04 2.546533e-04
1.142650e+04 2.408556e-04
1.142700e+04 2.272498e-04
1.142750e+04 2.138382e-04
1.142800e+04 2.006230e-04
1.142850e+04 1.876066e-04
1.142900e+04 1.747909e-04
1.142950e+04 1.621786e-04
1.143000e+04 1.497721e-04
1.143050e+04 1.375731e-04
1.143100e+04 1.255849e-04
1.143150e+04 1.138095e-04
1.143200e+04 1.022495e-04
1.143250e+04 9.090745e-05
1.143300e+04 7.978606e-05
1.143350e+04 6.888765e-05
1.143400e+04 5.821535e-05
1.143450e+04 4.777115e-05
1.143500e+04 3.755848e-05
1.143550e+04 2.757990e-05
1.143600e+04 1.783826e-05
1.143650e+04 8.336418e-06
1.143700e+04 -9.224988e-07
1.143750e+04 -9.935922e-06
1.143800e+04 -1.870043e-05
1.143850e+04 -2.721317e-05
1.143900e+04 -3.547073e-05
1.143950e+04 -4.347025e-05
1.144000e+04 -5.120832e-05
1.144050e+04 -5.868179e-05
1.144100e+04 -6.588697e-05
1.144150e+04 -7.282071e-05
1.144200e+04 -7.947960e-05
1.144250e+04 -8.586021e-05
1.144300e+04 -9.195855e-05
1.144350e+04 -9.777121e-05
1.144400e+04 -1.032945e-04
1.144450e+04 -1.085247e-04
1.144500e+04 -1.134577e-04
1.144550e+04 -1.180897e-04
1.144600e+04 -1.224172e-04
1.144650e+04 -1.264354e-04
1.144700e+04 -1.301408e-04
1.144750e+04 -1.335288e-04
1.144800e+04 -1.365956e-04
1.144850e+04 -1.393362e-04
1.144900e+04 -1.417469e-04
1.144950e+04 -1.438226e-04
1.145000e+04 -1.455587e-04
1.145050e+04 -1.469513e-04
1.145100e+04 -1.479949e-04
1.145150e+04 -1.486850e-04
1.145200e+04 -1.490165e-04
1.145250e+04 -1.489844e-04
1.145300e+04 -1.485840e-04
1.145350e+04 -1.478092e-04
1.145400e+04 -1.466556e-04
1.145450e+04 -1.451176e-04
1.145500e+04 -1.431890e-04
1.145550e+04 -1.408650e-04
1.145600e+04 -1.381396e-04
1.145650e+04 -1.350071e-04
1.145700e+04 -1.314611e-04
1.145750e+04 -1.274961e-04
1.145800e+04 -1.231054e-04
1.145850e+04 -1.182831e-04
1.145900e+04 -1.130224e-04
1.145950e+04 -1.073171e-04
1.146000e+04 -1.011606e-04
1.146050e+04 -9.454561e-05
1.146100e+04 -8.746537e-05
1.146150e+04 -7.991273e-05
1.146200e+04 -7.188056e-05
1.146250e+04 -6.336146e-05
1.146300e+04 -5.434801e-05
1.146350e+04 -4.483224e-05
1.146400e+04 -3.480644e-05
1.146450e+04 -2.426235e-05
1.146500e+04 -1.319198e-05
1.146550e+04 -1.587078e-06
1.146600e+04 1.056120e-05
1.146650e+04 2.326141e-05
1.146700e+04 3.652267e-05
1.146750e+04 5.035381e-05
1.146800e+04 6.476425e-05
1.146850e+04 7.976367e-05
1.146900e+04 9.536148e-05
1.146950e+04 1.115680e-04
1.147000e+04 1.283930e-04
1.147050e+04 1.458470e-04
1.147100e+04 1.639408e-04
1.147150e+04 1.826850e-04
1.147200e+04 2.020910e-04
1.147250e+04 2.221700e-04
1.147300e+04 2.429338e-04
1.147350e+04 2.643937e-04
1.147400e+04 2.865627e-04
1.147450e+04 3.094526e-04
1.147500e+04 3.330763e-04
1.147550e+04 3.574472e-04
1.147600e+04 3.825781e-04
1.147650e+04 4.084830e-04
1.147700e+04 4.351758e-04
1.147750e+04 4.626709e-04
1.147800e+04 4.909833e-04
1.147850e+04 5.201272e-04
1.147900e+04 5.501189e-04
1.147950e+04 5.809739e-04
1.148000e+04 6.127080e-04
1.148050e+04 6.453384e-04
1.148100e+04 6.788819e-04
1.148150e+04 7.133559e-04
1.148200e+04 7.487783e-04
1.148250e+04 7.851674e-04
1.148300e+04 8.225423e-04
1.148350e+04 8.609221e-04
1.148400e+04 9.003266e-04
1.148450e+04 9.407763e-04
1.148500e+04 9.822921e-04
1.148550e+04 1.024896e-03
1.148600e+04 1.068608e-03
1.148650e+04 1.113453e-03
1.148700e+04 1.159454e-03
1.148750e+04 1.206634e-03
1.148800e+04 1.255017e-03
1.148850e+04 1.304630e-03
1.148900e+04 1.355498e-03
1.148950e+04 1.407648e-03
1.149000e+04 1.461107e-03
1.149050e+04 1.515903e-03
1.149100e+04 1.572066e-03
1.149150e+04 1.629625e-03
1.149200e+04 1.688611e-03
1.149250e+04 1.749056e-03
1.149300e+04 1.810992e-03
1.149350e+04 1.874453e-03
1.149400e+04 1.939474e-03
1.149450e+04 2.006090e-03
1.149500e+04 2.074337e-03
1.149550e+04 2.144255e-03
1.149600e+04 2.215881e-03
1.149650e+04 2.289256e-03
1.149700e+04 2.364422e-03
1.149750e+04 2.441421e-03
1.149800e+04 2.520298e-03
1.149850e+04 2.601098e-03
1.149900e+04 2.683868e-03
1.149950e+04 2.768658e-03
1.150000e+04 2.855517e-03
1.150050e+04 2.944497e-03
1.150100e+04 3.035652e-03
1.150150e+04 3.129038e-03
1.150200e+04 3.224712e-03
1.150250e+04 3.322733e-03
1.150300e+04 3.423162e-03
1.150350e+04 3.526065e-03
1.150400e+04 3.631505e-03
1.150450e+04 3.739553e-03
1.150500e+04 3.850277e-03
1.150550e+04 3.963752e-03
1.150600e+04 4.080053e-03
1.150650e+04 4.199260e-03
1.150700e+04 4.321453e-03
1.150750e+04 4.446717e-03
1.150800e+04 4.575141e-03
1.150850e+04 4.706816e-03
1.150900e+04 4.841837e-03
1.150950e+04 4.980301e-03
1.151000e+04 5.122313e-03
1.151050e+04 5.267977e-03
1.151100e+04 5.417406e-03
1.151150e+04 5.570713e-03
1.151200e+04 5.728020e-03
1.151250e+04 5.889452e-03
1.151300e+04 6.055137e-03
1.151350e+04 6.225214e-03
1.151400e+04 6.399822e-03
1.151450e+04 6.579110e-03
1.151500e+04 6.763231e-03
1.151550e+04 6.952347e-03
1.151600e+04 7.146625e-03
1.151650e+04 7.346241e-03
1.151700e+04 7.551379e-03
1.151750e+04 7.762231e-03
1.151800e+04 7.978998e-03
1.151850e+04 8.201891e-03
1.151900e+04 8.431129e-03
1.151950e+04 8.666944e-03
1.152000e+04 8.909578e-03
1.152050e+04 9.159287e-03
1.152100e+04 9.416336e-03
1.152150e+04 9.681006e-03
1.152200e+04 9.953593e-03
1.152250e+04 1.023441e-02
1.152300e+04 1.052377e-02
1.152350e+04 1.082204e-02
1.152400e+04 1.112956e-02
1.152450e+04 1.144672e-02
1.152500e+04 1.177393e-02
1.152550e+04 1.211160e-02
1.152600e+04 1.246020e-02
1.152650e+04 1.282019e-02
1.152700e+04 1.319208e-02
1.152750e+04 1.357640e-02
1.152800e+04 1.397372e-02
1.152850e+04 1.438464e-02
1.152900e+04 1.480979e-02
1.152950e+04 1.524985e-02
1.153000e+04 1.570553e-02
1.153050e+04 1.617761e-02
1.153100e+04 1.666690e-02
1.153150e+04 1.717428e-02
1.153200e+04 1.770066e-02
1.153250e+04 1.824705e-02
1.153300e+04 1.881450e-02
1.153350e+04 1.940416e-02
1.153400e+04 2.001724e-02
1.153450e+04 2.065506e-02
1.153500e+04 2.131902e-02
1.153550e+04 2.201063e-02
1.153600e+04 2.273154e-02
1.153650e+04 2.348350e-02
1.153700e+04 2.426841e-02
1.153750e+04 2.508834e-02
1.153800e+04 2.594551e-02
1.153850e+04 2.684235e-02
1.153900e+04 2.778149e-02
1.153950e+04 2.876579e-02
1.154000e+04 2.979838e-02
1.154050e+04 3.088266e-02
1.154100e+04 3.202239e-02
1.154150e+04 3.322164e-02
1.154200e+04 3.448494e-02
1.154250e+04 3.581722e-02
1.154300e+04 3.722395e-02
1.154350e+04 3.871119e-02
1.154400e+04 4.028564e-02
1.154450e+04 4.195475e-02
1.154500e+04 4.372680e-02
1.154550e+04 4.561107e-02
1.154600e+04 4.761795e-02
1.154650e+04 4.975909e-02
1.154700e+04 5.204764e-02
1.154750e+04 5.449846e-02
1.154800e+04 5.712842e-02
1.154850e+04 5.995669e-02
1.154900e+04 6.300523e-02
1.154950e+04 6.629920e-02
1.155000e+04 6.986761e-02
1.155050e+04 7.374401e-02
1.155100e+04 7.796743e-02
1.155150e+04 8.258348e-02
1.155200e+04 8.764570e-02
1.155250e+04 9.321738e-02
1.155300e+04 9.937366e-02
1.155350e+04 1.062044e-01
1.155400e+04 1.138177e-01
1.155410e+04 1.154453e-01
1.155420e+04 1.171106e-01
1.155430e+04 1.188147e-01
1.155440e+04 1.205589e-01
1.155450e+04 1.223445e-01
1.155460e+04 1.241730e-01
1.155470e+04 1.260457e-01
1.155480e+04 1.279642e-01
1.155490e+04 1.299300e-01
1.155500e+04 1.319448e-01
1.155510e+04 1.340102e-01
1.155520e+04 1.361280e-01
1.155530e+04 1.383001e-01
1.155540e+04 1.405284e-01
1.155550e+04 1.428149e-01
1.155560e+04 1.451618e-01
1.155570e+04 1.475713e-01
1.155580e+04 1.500456e-01
1.155590e+04 1.525872e-01
1.155600e+04 1.551986e-01
1.155610e+04 1.578825e-01
1.155620e+04 1.606416e-01
1.155630e+04 1.634789e-01
1.155640e+04 1.663974e-01
1.155650e+04 1.694002e-01
1.155660e+04 1.724908e-01
1.155670e+04 1.756726e-01
1.155680e+04 1.789493e-01
1.155690e+04 1.823248e-01
1.155700e+04 1.858031e-01
1.155710e+04 1.893886e-01
1.155720e+04 1.930856e-01
1.155730e+04 1.968989e-01
1.155740e+04 2.008335e-01
1.155750e+04 2.048945e-01
1.155760e+04 2.090873e-01
1.155770e+04 2.134178e-01
1.155780e+04 2.178920e-01
1.155790e+04 2.225163e-01
1.155800e+04 2.272973e-01
1.155810e+04 2.322421e-01
1.155820e+04 2.373582e-01
1.155830e+04 2.426534e-01
1.155840e+04 2.481358e-01
1.155850e+04 2.538142e-01
1.155860e+04 2.596977e-01
1.155870e+04 2.657959e-01
1.155880e+04 2.721190e-01
1.155890e+04 2.786776e-01
1.155900e+04 2.854828e-01
1.155910e+04 2.925467e-01
1.155920e+04 2.998814e-01
1.155930e+04 3.075001e-01
1.155940e+04 3.154164e-01
1.155950e+04 3.236449e-01
1.155960e+04 3.322005e-01
1.155970e+04 3.410991e-01
1.155980e+04 3.503572e-01
1.155990e+04 3.599921e-01
1.156000e+04 3.700218e-01
1.156010e+04 3.804651e-01
1.156020e+04 3.913414e-01
1.156030e+04 4.026711e-01
1.156040e+04 4.144748e-01
1.156050e+04 4.267742e-01
1.156060e+04 4.395910e-01
1.156070e+04 4.529477e-01
1.156080e+04 4.668668e-01
1.156090e+04 4.813712e-01
1.156100e+04 4.964832e-01
1.156110e+04 5.122253e-01
1.156120e+04 5.286188e-01
1.156130e+04 5.456842e-01
1.156140e+04 5.634405e-01
1.156150e+04 5.819044e-01
1.156160e+04 6.010903e-01
1.156170e+04 6.210091e-01
1.156180e+04 6.416676e-01
1.156190e+04 6.630676e-01
1.156200e+04 6.852050e-01
1.156210e+04 7.080689e-01
1.156220e+04 7.316401e-01
1.156230e+04 7.558905e-01
1.156240e+04 7.807813e-01
1.156250e+04 8.062627e-01
1.156260e+04 8.322723e-01
1.156270e+04 8.587343e-01
1.156280e+04 8.855592e-01
1.156290e+04 9.126433e-01
1.156300e+04 9.398689e-01
1.156310e+04 9.671045e-01
1.156320e+04 9.942067e-01
1.156330e+04 1.021021e+00
1.156340e+04 1.047386e+00
1.156350e+04 1.073134e+00
1.156360e+04 1.098095e+00
1.156370e+04 1.122102e+00
1.156380e+04 1.144994e+00
1.156390e+04 1.166622e+00
1.156400e+04 1.186848e+00
1.156410e+04 1.205552e+00
1.156420e+04 1.222634e+00
1.156430e+04 1.238018e+00
1.156440e+04 1.251654e+00
1.156450e+04 1.263516e+00
1.156460e+04 1.273601e+00
1.156470e+04 1.281930e+00
1.156480e+04 1.288543e+00
1.156490e+04 1.293499e+00
1.156500e+04 1.296871e+00
1.156510e+04 1.298743e+00
1.156520e+04 1.299209e+00
1.156530e+04 1.298369e+00
1.156540e+04 1.296326e+00
1.156550e+04 1.293184e+00
1.156560e+04 1.289048e+00
1.156570e+04 1.284021e+00
1.156580e+04 1.278201e+00
1.156590e+04 1.271685e+00
1.156600e+04 1.264566e+00
1.156610e+04 1.256929e+00
1.156620e+04 1.248858e+00
1.156630e+04 1.240431e+00
1.156640e+04 1.231721e+00
1.156650e+04 1.222795e+00
1.156660e+04 1.213718e+00
1.156670e+04 1.204549e+00
1.156680e+04 1.195343e+00
1.156690e+04 1.186148e+00
1.156700e+04 1.177013e+00
1.156710e+04 1.167978e+00
1.156720e+04 1.159080e+00
1.156730e+04 1.150355e+00
1.156740e+04 1.141832e+00
1.156750e+04 1.133537e+00
1.156760e+04 1.125494e+00
1.156770e+04 1.117721e+00
1.156780e+04 1.110234e+00
1.156790e+04 1.103047e+00
1.156800e+04 1.096169e+00
1.156810e+04 1.089608e+00
1.156820e+04 1.083367e+00
1.156830e+04 1.077448e+00
1.156840e+04 1.071849e+00
1.156850e+04 1.066567e+00
1.156860e+04 1.061596e+00
1.156870e+04 1.056927e+00
1.156880e+04 1.052549e+00
1.156890e+04 1.048451e+00
1.156900e+04 1.044617e+00
1.156910e+04 1.041030e+00
1.156920e+04 1.037672e+00
1.156930e+04 1.034524e+00
1.156940e+04 1.031564e+00
1.156950e+04 1.028770e+00
1.156960e+04 1.026119e+00
1.156970e+04 1.023588e+00
1.156980e+04 1.021153e+00
1.156990e+04 1.018791e+00
1.157000e+04 1.016481e+00
1.157010e+04 1.014200e+00
1.157020e+04 1.011931e+00
1.157030e+04 1.009656e+00
1.157040e+04 1.007361e+00
1.157050e+04 1.005035e+00
1.157060e+04 1.002669e+00
1.157070e+04 1.000259e+00
1.157080e+04 9.978036e-01
1.157090e+04 9.953050e-01
1.157100e+04 9.927691e-01
1.157110e+04 9.902048e-01
1.157120e+04 9.876243e-01
1.157130e+04 9.850420e-01
1.157140e+04 9.824750e-01
1.157150e+04 9.799418e-01
1.157160e+04 9.774623e-01
1.157170e+04 9.750576e-01
1.157180e+04 9.727488e-01
1.157190e+04 9.705572e-01
1.157200e+04 9.685036e-01
1.157210e+04 9.666081e-01
1.157220e+04 9.648896e-01
1.157230e+04 9.633657e-01
1.157240e+04 9.620524e-01
1.157250e+04 9.609639e-01
1.157260e+04 9.601124e-01
1.157270e+04 9.595079e-01
1.157280e+04 9.591586e-01
1.157290e+04 9.590701e-01
1.157300e+04 9.592461e-01
1.157310e+04 9.596878e-01
1.157320e+04 9.603942e-01
1.157330e+04 9.613622e-01
1.157340e+04 9.625865e-01
1.157350e+04 9.640596e-01
1.157360e+04 9.657720e-01
1.157370e+04 9.677125e-01
1.157380e+04 9.698678e-01
1.157390e+04 9.722232e-01
1.157400e+04 9.747625e-01
1.157410e+04 9.774681e-01
1.157420e+04 9.803213e-01
1.157430e+04 9.833028e-01
1.157440e+04 9.863922e-01
1.157450e+04 9.895691e-01
1.157460e+04 9.928125e-01
1.157470e+04 9.961018e-01
1.157480e+04 9.994162e-01
1.157490e+04 1.002736e+00
1.157500e+04 1.006041e+00
1.157510e+04 1.009312e+00
1.157520e+04 1.012532e+00
1.157530e+04 1.015683e+00
1.157540e+04 1.018750e+00
1.157550e+04 1.021717e+00
1.157560e+04 1.024571e+00
1.157570e+04 1.027299e+00
1.157580e+04 1.029888e+00
1.157590e+04 1.032329e+00
1.157600e+04 1.034612e+00
1.157610e+04 1.036727e+00
1.157620e+04 1.038667e+00
1.157630e+04 1.040425e+00
1.157640e+04 1.041995e+00
1.157650e+04 1.043371e+00
1.157660e+04 1.044548e+00
1.157670e+04 1.045521e+00
1.157680e+04 1.046286e+00
1.157690e+04 1.046840e+00
1.157700e+04 1.047180e+00
1.157710e+04 1.047302e+00
1.157720e+04 1.047204e+00
1.157730e+04 1.046884e+00
1.157740e+04 1.046340e+00
1.157750e+04 1.045570e+00
1.157760e+04 1.044573e+00
1.157770e+04 1.043349e+00
1.157780e+04 1.041898e+00
1.157790e+04 1.040220e+00
1.157800e+04 1.038317e+00
1.157810e+04 1.036193e+00
1.157820e+04 1.033849e+00
1.157830e+04 1.031291e+00
1.157840e+04 1.028526e+00
1.157850e+04 1.025559e+00
1.157860e+04 1.022399e+00
1.157870e+04 1.019055e+00
1.157880e+04 1.015539e+00
1.157890e+04 1.011862e+00
1.157900e+04 1.008036e+00
1.157910e+04 1.004076e+00
1.157920e+04 9.999948e-01
1.157930e+04 9.958086e-01
1.157940e+04 9.915327e-01
1.157950e+04 9.871832e-01
1.157960e+04 9.827766e-01
1.157970e+04 9.783296e-01
1.157980e+04 9.738592e-01
1.157990e+04 9.693823e-01
1.158000e+04 9.649158e-01
1.158010e+04 9.604767e-01
1.158020e+04 9.560816e-01
1.158030e+04 9.517467e-01
1.158040e+04 9.474879e-01
1.158050e+04 9.433204e-01
1.158060e+04 9.392586e-01
1.158070e+04 9.353161e-01
1.158080e+04 9.315055e-01
1.158090e+04 9.278381e-01
1.158100e+04 9.243239e-01
1.158110e+04 9.209714e-01
1.158120e+04 9.177879e-01
1.158130e+04 9.147787e-01
1.158140e+04 9.119477e-01
1.158150e+04 9.092971e-01
1.158160e+04 9.068275e-01
1.158170e+04 9.045379e-01
1.158180e+04 9.024258e-01
1.158190e+04 9.004872e-01
1.158200e+04 8.987168e-01
1.158210e+04 8.971083e-01
1.158220e+04 8.956540e-01
1.158230e+04 8.943457e-01
1.158240e+04 8.931744e-01
1.158250e+04 8.921305e-01
1.158260e+04 8.912042e-01
1.158270e+04 8.903857e-01
1.158280e+04 8.896651e-01
1.158290e+04 8.890330e-01
1.158300e+04 8.884803e-01
1.158310e+04 8.879986e-01
1.158320e+04 8.875803e-01
1.158330e+04 8.872189e-01
1.158340e+04 8.869087e-01
1.158350e+04 8.866453e-01
1.158360e+04 8.864252e-01
1.158370e+04 8.862466e-01
1.158380e+04 8.861084e-01
1.158390e+04 8.860111e-01
1.158400e+04 8.859558e-01
1.158410e+04 8.859452e-01
1.158420e+04 8.859823e-01
1.158430e+04 8.860714e-01
1.158440e+04 8.862171e-01
1.158450e+04 8.864246e-01
1.158460e+04 8.866993e-01
1.158470e+04 8.870468e-01
1.158480e+04 8.874728e-01
1.158490e+04 8.879825e-01
1.158500e+04 8.885811e-01
1.158510e+04 8.892734e-01
1.158520e+04 8.900634e-01
1.158530e+04 8.909548e-01
1.158540e+04 8.919502e-01
1.158550e+04 8.930521e-01
1.158560e+04 8.942618e-01
1.158570e+04 8.955802e-01
1.158580e+04 8.970074e-01
1.158590e+04 8.985431e-01
1.158600e+04 9.001862e-01
1.158610e+04 9.019356e-01
1.158620e+04 9.037898e-01
1.158630e+04 9.057469e-01
1.158640e+04 9.078053e-01
1.158650e+04 9.099632e-01
1.158660e+04 9.122192e-01
1.158670e+04 9.145719e-01
1.158680e+04 9.170204e-01
1.158690e+04 9.195641e-01
1.158700e+04 9.222030e-01
1.158710e+04 9.249372e-01
1.158720e+04 9.277674e-01
1.158730e+04 9.306945e-01
1.158740e+04 9.337197e-01
1.158750e+04 9.368444e-01
1.158760e+04 9.400700e-01
1.158770e+04 9.433981e-01
1.158780e+04 9.468297e-01
1.158790e+04 9.503659e-01
1.158800e+04 9.540071e-01
1.158810e+04 9.577533e-01
1.158820e+04 9.616038e-01
1.158830e+04 9.655570e-01
1.158840e+04 9.696104e-01
1.158850e+04 9.737606e-01
1.158860e+04 9.780030e-01
1.158870e+04 9.823317e-01
1.158880e+04 9.867399e-01
1.158890e+04 9.912191e-01
1.158900e+04 9.957599e-01
1.158910e+04 1.000351e+00
1.158920e+04 1.004981e+00
1.158930e+04 1.009635e+00
1.158940e+04 1.014300e+00
1.158950e+04 1.018959e+00
1.158960e+04 1.023595e+00
1.158970e+04 1.028191e+00
1.158980e+04 1.032728e+00
1.158990e+04 1.037188e+00
1.159000e+04 1.041549e+00
1.159010e+04 1.045794e+00
1.159020e+04 1.049901e+00
1.159030e+04 1.053853e+00
1.159040e+04 1.057629e+00
1.159050e+04 1.061212e+00
1.159060e+04 1.064586e+00
1.159070e+04 1.067733e+00
1.159080e+04 1.070639e+00
1.159090e+04 1.073293e+00
1.159100e+04 1.075683e+00
1.159110e+04 1.077799e+00
1.159120e+04 1.079636e+00
1.159130e+04 1.081189e+00
1.159140e+04 1.082454e+00
1.159150e+04 1.083433e+00
1.159160e+04 1.084126e+00
1.159170e+04 1.084538e+00
1.159180e+04 1.084675e+00
1.159190e+04 1.084546e+00
1.159200e+04 1.084160e+00
1.159210e+04 1.083529e+00
1.159220e+04 1.082665e+00
1.159230e+04 1.081583e+00
1.159240e+04 1.080299e+00
1.159250e+04 1.078828e+00
1.159260e+04 1.077186e+00
1.159270e+04 1.075391e+00
1.159280e+04 1.073459e+00
1.159290e+04 1.071408e+00
1.159300e+04 1.069255e+00
1.159310e+04 1.067014e+00
1.159320e+04 1.064702e+00
1.159330e+04 1.062334e+00
1.159340e+04 1.059924e+00
1.159350e+04 1.057485e+00
1.159360e+04 1.055029e+00
1.159370e+04 1.052567e+00
1.159380e+04 1.050109e+00
1.159390e+04 1.047664e+00
1.159400e+04 1.045239e+00
1.159450e+04 1.033634e+00
1.159500e+04 1.023215e+00
1.159550e+04 1.014173e+00
1.159600e+04 1.006602e+00
1.159650e+04 1.000639e+00
1.159700e+04 9.964604e-01
1.159750e+04 9.941544e-01
1.159800e+04 9.935851e-01
1.159850e+04 9.943192e-01
1.159900e+04 9.956630e-01
1.159950e+04 9.967966e-01
1.160000e+04 9.969595e-01
1.160050e+04 9.956248e-01
1.160100e+04 9.926080e-01
1.160150e+04 9.880798e-01
1.160200e+04 9.824940e-01
1.160250e+04 9.764658e-01
1.160300e+04 9.706439e-01
1.160350e+04 9.656083e-01
1.160400e+04 9.618062e-01
1.160450e+04 9.595253e-01
1.160500e+04 9.588948e-01
1.160550e+04 9.599056e-01
1.160600e+04 9.624433e-01
1.160650e+04 9.663270e-01
1.160700e+04 9.713505e-01
1.160750e+04 9.773148e-01
1.160800e+04 9.840494e-01
1.160850e+04 9.914157e-01
1.160900e+04 9.992999e-01
1.160950e+04 1.007602e+00
1.161000e+04 1.016228e+00
1.161050e+04 1.025083e+00
1.161100e+04 1.034073e+00
1.161150e+04 1.043100e+00
1.161200e+04 1.052053e+00
1.161250e+04 1.060803e+00
1.161300e+04 1.069189e+00
1.161350e+04 1.077020e+00
1.161400e+04 1.084075e+00
1.161450e+04 1.090132e+00
1.161500e+04 1.094988e+00
1.161550e+04 1.098501e+00
1.161600e+04 1.100616e+00
1.161650e+04 1.101386e+00
1.161700e+04 1.100964e+00
1.161750e+04 1.099586e+00
1.161800e+04 1.097529e+00
1.161850e+04 1.095067e+00
1.161900e+04 1.092439e+00
1.161950e+04 1.089823e+00
1.162000e+04 1.087327e+00
1.162050e+04 1.084997e+00
1.162100e+04 1.082831e+00
1.162150e+04 1.080799e+00
1.162200e+04 1.078862e+00
