# energy(eV) normalized_intensity
1.141400e+04 6.427914e-04
1.141450e+04 6.248380e-04
1.141500e+04 6.070338e-04
1.141550e+04 5.893801e-04
1.141600e+04 5.718787e-04
1.141650e+04 5.545314e-04
1.141700e+04 5.373394e-04
1.141750e+04 5.203046e-04
1.141800e+04 5.034285e-04
1.141850e+04 4.867132e-04
1.141900e+04 4.701599e-04
1.141950e+04 4.537706e-04
1.142000e+04 4.375472e-04
1.142050e+04 4.214912e-04
1.142100e+04 4.056044e-04
1.142150e+04 3.898890e-04
1.142200e+04 3.743467e-04
1.142250e+04 3.589791e-04
1.142300e+04 3.437886e-04
1.142350e+04 3.287770e-04
1.142400e+04 3.139460e-04
1.142450e+04 2.992979e-04
1.142500e+04 2.848348e-04
1.142550e+04 2.705585e-04
1.142600e+04 2.564713e-04
1.142650e+04 2.425753e-04
1.142700e+04 2.288725e-04
1.142750e+04 2.153653e-04
1.142800e+04 2.020559e-04
1.142850e+04 1.889467e-04
1.142900e+04 1.760396e-04
1.142950e+04 1.633372e-04
1.143000e+04 1.508422e-04
1.143050e+04 1.385562e-04
1.143100e+04 1.264825e-04
1.143150e+04 1.146229e-04
1.143200e+04 1.029804e-04
1.143250e+04 9.155736e-05
1.143300e+04 8.035653e-05
1.143350e+04 6.938025e-05
1.143400e+04 5.863167e-05
1.143450e+04 4.811282e-05
1.143500e+04 3.782714e-05
1.143550e+04 2.777720e-05
1.143600e+04 1.796589e-05
1.143650e+04 8.396068e-06
1.143700e+04 -9.291004e-07
1.143750e+04 -1.000703e-05
1.143800e+04 -1.883428e-05
1.143850e+04 -2.740798e-05
1.143900e+04 -3.572468e-05
1.143950e+04 -4.378151e-05
1.144000e+04 -5.157502e-05
1.144050e+04 -5.910205e-05
1.144100e+04 -6.635888e-05
1.144150e+04 -7.334234e-05
1.144200e+04 -8.004899e-05
1.144250e+04 -8.647538e-05
1.144300e+04 -9.261749e-05
1.144350e+04 -9.847187e-05
1.144400e+04 -1.040348e-04
1.144450e+04 -1.093025e-04
1.144500e+04 -1.142711e-04
1.144550e+04 -1.189364e-04
1.144600e+04 -1.232950e-04
1.144650e+04 -1.273421e-04
1.144700e+04 -1.310741e-04
1.144750e+04 -1.344866e-04
1.144800e+04 -1.375754e-04
1.144850e+04 -1.403358e-04
1.144900e+04 -1.427639e-04
1.144950e+04 -1.448546e-04
1.145000e+04 -1.466033e-04
1.145050e+04 -1.480060e-04
1.145100e+04 -1.490573e-04
1.145150e+04 -1.497524e-04
1.145200e+04 -1.500863e-04
1.145250e+04 -1.500542e-04
1.145300e+04 -1.496510e-04
1.145350e+04 -1.488708e-04
1.145400e+04 -1.477089e-04
1.145450e+04 -1.461600e-04
1.145500e+04 -1.442177e-04
1.145550e+04 -1.418771e-04
1.145600e+04 -1.391322e-04
1.145650e+04 -1.359773e-04
1.145700e+04 -1.324060e-04
1.145750e+04 -1.284126e-04
1.145800e+04 -1.239904e-04
1.145850e+04 -1.191336e-04
1.145900e+04 -1.138351e-04
1.145950e+04 -1.080889e-04
1.146000e+04 -1.018881e-04
1.146050e+04 -9.522566e-05
1.146100e+04 -8.809456e-05
1.146150e+04 -8.048765e-05
1.146200e+04 -7.239775e-05
1.146250e+04 -6.381741e-05
1.146300e+04 -5.473914e-05
1.146350e+04 -4.515492e-05
1.146400e+04 -3.505698e-05
1.146450e+04 -2.443701e-05
1.146500e+04 -1.328696e-05
1.146550e+04 -1.598506e-06
1.146600e+04 1.063726e-05
1.146650e+04 2.342894e-05
1.146700e+04 3.678574e-05
1.146750e+04 5.071655e-05
1.146800e+04 6.523084e-05
1.146850e+04 8.033839e-05
1.146900e+04 9.604867e-05
1.146950e+04 1.123720e-04
1.147000e+04 1.293185e-04
1.147050e+04 1.468984e-04
1.147100e+04 1.651226e-04
1.147150e+04 1.840022e-04
1.147200e+04 2.035482e-04
1.147250e+04 2.237722e-04
1.147300e+04 2.446859e-04
1.147350e+04 2.663008e-04
1.147400e+04 2.886299e-04
1.147450e+04 3.116852e-04
1.147500e+04 3.354796e-04
1.147550e+04 3.600266e-04
1.147600e+04 3.853392e-04
1.147650e+04 4.114313e-04
1.147700e+04 4.383172e-04
1.147750e+04 4.660111e-04
1.147800e+04 4.945282e-04
1.147850e+04 5.238830e-04
1.147900e+04 5.540917e-04
1.147950e+04 5.851700e-04
1.148000e+04 6.171338e-04
1.148050e+04 6.500004e-04
1.148100e+04 6.837867e-04
1.148150e+04 7.185103e-04
1.148200e+04 7.541893e-04
1.148250e+04 7.908419e-04
1.148300e+04 8.284876e-04
1.148350e+04 8.671454e-04
1.148400e+04 9.068355e-04
1.148450e+04 9.475784e-04
1.148500e+04 9.893951e-04
1.148550e+04 1.032307e-03
1.148600e+04 1.076337e-03
1.148650e+04 1.121507e-03
1.148700e+04 1.167842e-03
1.148750e+04 1.215364e-03
1.148800e+04 1.264098e-03
1.148850e+04 1.314071e-03
1.148900e+04 1.365308e-03
1.148950e+04 1.417836e-03
1.149000e+04 1.471684e-03
1.149050e+04 1.526878e-03
1.149100e+04 1.583448e-03
1.149150e+04 1.641425e-03
1.149200e+04 1.700840e-03
1.149250e+04 1.761724e-03
1.149300e+04 1.824110e-03
1.149350e+04 1.888032e-03
1.149400e+04 1.953525e-03
1.149450e+04 2.020625e-03
1.149500e+04 2.089369e-03
1.149550e+04 2.159795e-03
1.149600e+04 2.231942e-03
1.149650e+04 2.305851e-03
1.149700e+04 2.381563e-03
1.149750e+04 2.459123e-03
1.149800e+04 2.538573e-03
1.149850e+04 2.619961e-03
1.149900e+04 2.703334e-03
1.149950e+04 2.788741e-03
1.150000e+04 2.876232e-03
1.150050e+04 2.965860e-03
1.150100e+04 3.057679e-03
1.150150e+04 3.151745e-03
1.150200e+04 3.248115e-03
1.150250e+04 3.346850e-03
1.150300e+04 3.448011e-03
1.150350e+04 3.551664e-03
1.150400e+04 3.657872e-03
1.150450e+04 3.766707e-03
1.150500e+04 3.878239e-03
1.150550e+04 3.992541e-03
1.150600e+04 4.109690e-03
1.150650e+04 4.229765e-03
1.150700e+04 4.352850e-03
1.150750e+04 4.479028e-03
1.150800e+04 4.608389e-03
1.150850e+04 4.741024e-03
1.150900e+04 4.877029e-03
1.150950e+04 5.016504e-03
1.151000e+04 5.159552e-03
1.151050e+04 5.306280e-03
1.151100e+04 5.456799e-03
1.151150e+04 5.611226e-03
1.151200e+04 5.769681e-03
1.151250e+04 5.932291e-03
1.151300e+04 6.099187e-03
1.151350e+04 6.270505e-03
1.151400e+04 6.446389e-03
1.151450e+04 6.626986e-03
1.151500e+04 6.812452e-03
1.151550e+04 7.002950e-03
1.151600e+04 7.198648e-03
1.151650e+04 7.399723e-03
1.151700e+04 7.606360e-03
1.151750e+04 7.818754e-03
1.151800e+04 8.037105e-03
1.151850e+04 8.261627e-03
1.151900e+04 8.492542e-03
1.151950e+04 8.730081e-03
1.152000e+04 8.974490e-03
1.152050e+04 9.226025e-03
1.152100e+04 9.484955e-03
1.152150e+04 9.751561e-03
1.152200e+04 1.002614e-02
1.152250e+04 1.030901e-02
1.152300e+04 1.060049e-02
1.152350e+04 1.090094e-02
1.152400e+04 1.121071e-02
1.152450e+04 1.153020e-02
1.152500e+04 1.185980e-02
1.152550e+04 1.219995e-02
1.152600e+04 1.255110e-02
1.152650e+04 1.291372e-02
1.152700e+04 1.328834e-02
1.152750e+04 1.367547e-02
1.152800e+04 1.407570e-02
1.152850e+04 1.448963e-02
1.152900e+04 1.491789e-02
1.152950e+04 1.536118e-02
1.153000e+04 1.582020e-02
1.153050e+04 1.629574e-02
1.153100e+04 1.678862e-02
1.153150e+04 1.729971e-02
1.153200e+04 1.782995e-02
1.153250e+04 1.838035e-02
1.153300e+04 1.895196e-02
1.153350e+04 1.954594e-02
1.153400e+04 2.016351e-02
1.153450e+04 2.080601e-02
1.153500e+04 2.147484e-02
1.153550e+04 2.217152e-02
1.153600e+04 2.289772e-02
1.153650e+04 2.365519e-02
1.153700e+04 2.444586e-02
1.153750e+04 2.527181e-02
1.153800e+04 2.613527e-02
1.153850e+04 2.703869e-02
1.153900e+04 2.798471e-02
1.153950e+04 2.897624e-02
1.154000e+04 3.001640e-02
1.154050e+04 3.110865e-02
1.154100e+04 3.225674e-02
1.154150e+04 3.346480e-02
1.154200e+04 3.473736e-02
1.154250e+04 3.607942e-02
1.154300e+04 3.749649e-02
1.154350e+04 3.899465e-02
1.154400e+04 4.058066e-02
1.154450e+04 4.226201e-02
1.154500e+04 4.404708e-02
1.154550e+04 4.594519e-02
1.154600e+04 4.796681e-02
1.154650e+04 5.012367e-02
1.154700e+04 5.242903e-02
1.154750e+04 5.489785e-02
1.154800e+04 5.754713e-02
1.154850e+04 6.039618e-02
1.154900e+04 6.346712e-02
1.154950e+04 6.678529e-02
1.155000e+04 7.037991e-02
1.155050e+04 7.428479e-02
1.155100e+04 7.853924e-02
1.155150e+04 8.318921e-02
1.155200e+04 8.828863e-02
1.155250e+04 9.390125e-02
1.155300e+04 1.001028e-01
1.155350e+04 1.069837e-01
1.155400e+04 1.146530e-01
1.155410e+04 1.162926e-01
1.155420e+04 1.179701e-01
1.155430e+04 1.196867e-01
1.155440e+04 1.214437e-01
1.155450e+04 1.232425e-01
1.155460e+04 1.250844e-01
1.155470e+04 1.269709e-01
1.155480e+04 1.289035e-01
1.155490e+04 1.308837e-01
1.155500e+04 1.329133e-01
1.155510e+04 1.349938e-01
1.155520e+04 1.371272e-01
1.155530e+04 1.393153e-01
1.155540e+04 1.415600e-01
1.155550e+04 1.438633e-01
1.155560e+04 1.462275e-01
1.155570e+04 1.486546e-01
1.155580e+04 1.511471e-01
1.155590e+04 1.537074e-01
1.155600e+04 1.563380e-01
1.155610e+04 1.590417e-01
1.155620e+04 1.618211e-01
1.155630e+04 1.646792e-01
1.155640e+04 1.676191e-01
1.155650e+04 1.706440e-01
1.155660e+04 1.737573e-01
1.155670e+04 1.769625e-01
1.155680e+04 1.802633e-01
1.155690e+04 1.836636e-01
1.155700e+04 1.871676e-01
1.155710e+04 1.907794e-01
1.155720e+04 1.945036e-01
1.155730e+04 1.983449e-01
1.155740e+04 2.023084e-01
1.155750e+04 2.063992e-01
1.155760e+04 2.106229e-01
1.155770e+04 2.149853e-01
1.155780e+04 2.194924e-01
1.155790e+04 2.241506e-01
1.155800e+04 2.289668e-01
1.155810e+04 2.339480e-01
1.155820e+04 2.391017e-01
1.155830e+04 2.444357e-01
1.155840e+04 2.499585e-01
1.155850e+04 2.556786e-01
1.155860e+04 2.616054e-01
1.155870e+04 2.677485e-01
1.155880e+04 2.741180e-01
1.155890e+04 2.807248e-01
1.155900e+04 2.875801e-01
1.155910e+04 2.946959e-01
1.155920e+04 3.020845e-01
1.155930e+04 3.097592e-01
1.155940e+04 3.177338e-01
1.155950e+04 3.260228e-01
1.155960e+04 3.346413e-01
1.155970e+04 3.436053e-01
1.155980e+04 3.529315e-01
1.155990e+04 3.626372e-01
1.156000e+04 3.727407e-01
1.156010e+04 3.832608e-01
1.156020e+04 3.942171e-01
1.156030e+04 4.056301e-01
1.156040e+04 4.175207e-01
1.156050e+04 4.299104e-01
1.156060e+04 4.428215e-01
1.156070e+04 4.562764e-01
1.156080e+04 4.702980e-01
1.156090e+04 4.849090e-01
1.156100e+04 5.001322e-01
1.156110e+04 5.159900e-01
1.156120e+04 5.325041e-01
1.156130e+04 5.496950e-01
1.156140e+04 5.675819e-01
1.156150e+04 5.861816e-01
1.156160e+04 6.055087e-01
1.156170e+04 6.255740e-01
1.156180e+04 6.463844e-01
1.156190e+04 6.679418e-01
1.156200e+04 6.902421e-01
1.156210e+04 7.132741e-01
1.156220e+04 7.370187e-01
1.156230e+04 7.614475e-01
1.156240e+04 7.865215e-01
1.156250e+04 8.121903e-01
1.156260e+04 8.383912e-01
1.156270e+04 8.650479e-01
1.156280e+04 8.920702e-01
1.156290e+04 9.193536e-01
1.156300e+04 9.467794e-01
1.156310e+04 9.742155e-01
1.156320e+04 1.001517e+00
1.156330e+04 1.028529e+00
1.156340e+04 1.055088e+00
1.156350e+04 1.081025e+00
1.156360e+04 1.106170e+00
1.156370e+04 1.130354e+00
1.156380e+04 1.153415e+00
1.156390e+04 1.175201e+00
1.156400e+04 1.195577e+00
1.156410e+04 1.214403e+00
1.156420e+04 1.231560e+00
1.156430e+04 1.246972e+00
1.156440e+04 1.260585e+00
1.156450e+04 1.272374e+00
1.156460e+04 1.282339e+00
1.156470e+04 1.290502e+00
1.156480e+04 1.296910e+00
1.156490e+04 1.301624e+00
1.156500e+04 1.304724e+00
1.156510e+04 1.306300e+00
1.156520e+04 1.306452e+00
1.156530e+04 1.305286e+00
1.156540e+04 1.302910e+00
1.156550e+04 1.299435e+00
1.156560e+04 1.294970e+00
1.156570e+04 1.289622e+00
1.156580e+04 1.283494e+00
1.156590e+04 1.276687e+00
1.156600e+04 1.269296e+00
1.156610e+04 1.261410e+00
1.156620e+04 1.253114e+00
1.156630e+04 1.244488e+00
1.156640e+04 1.235606e+00
1.156650e+04 1.226537e+00
1.156660e+04 1.217345e+00
1.156670e+04 1.208088e+00
1.156680e+04 1.198822e+00
1.156690e+04 1.189595e+00
1.156700e+04 1.180451e+00
1.156710e+04 1.171432e+00
1.156720e+04 1.162573e+00
1.156730e+04 1.153904e+00
1.156740e+04 1.145455e+00
1.156750e+04 1.137248e+00
1.156760e+04 1.129304e+00
1.156770e+04 1.121639e+00
1.156780e+04 1.114265e+00
1.156790e+04 1.107192e+00
1.156800e+04 1.100428e+00
1.156810e+04 1.093975e+00
1.156820e+04 1.087834e+00
1.156830e+04 1.082004e+00
1.156840e+04 1.076480e+00
1.156850e+04 1.071256e+00
1.156860e+04 1.066322e+00
1.156870e+04 1.061669e+00
1.156880e+04 1.057283e+00
1.156890e+04 1.053151e+00
1.156900e+04 1.049256e+00
1.156910e+04 1.045582e+00
1.156920e+04 1.042110e+00
1.156930e+04 1.038822e+00
1.156940e+04 1.035698e+00
1.156950e+04 1.032719e+00
1.156960e+04 1.029866e+00
1.156970e+04 1.027120e+00
1.156980e+04 1.024463e+00
1.156990e+04 1.021878e+00
1.157000e+04 1.019350e+00
1.157010e+04 1.016864e+00
1.157020e+04 1.014410e+00
1.157030e+04 1.011979e+00
1.157040e+04 1.009562e+00
1.157050e+04 1.007156e+00
1.157060e+04 1.004758e+00
1.157070e+04 1.002369e+00
1.157080e+04 9.999928e-01
1.157090e+04 9.976334e-01
1.157100e+04 9.952981e-01
1.157110e+04 9.929959e-01
1.157120e+04 9.907369e-01
1.157130e+04 9.885326e-01
1.157140e+04 9.863951e-01
1.157150e+04 9.843370e-01
1.157160e+04 9.823712e-01
1.157170e+04 9.805102e-01
1.157180e+04 9.787662e-01
1.157190e+04 9.771506e-01
1.157200e+04 9.756739e-01
1.157210e+04 9.743456e-01
1.157220e+04 9.731738e-01
1.157230e+04 9.721650e-01
1.157240e+04 9.713248e-01
1.157250e+04 9.706566e-01
1.157260e+04 9.701625e-01
1.157270e+04 9.698431e-01
1.157280e+04 9.696973e-01
1.157290e+04 9.697224e-01
1.157300e+04 9.699142e-01
1.157310e+04 9.702673e-01
1.157320e+04 9.707747e-01
1.157330e+04 9.714284e-01
1.157340e+04 9.722191e-01
1.157350e+04 9.731365e-01
1.157360e+04 9.741697e-01
1.157370e+04 9.753068e-01
1.157380e+04 9.765353e-01
1.157390e+04 9.778424e-01
1.157400e+04 9.792149e-01
1.157410e+04 9.806394e-01
1.157420e+04 9.821026e-01
1.157430e+04 9.835910e-01
1.157440e+04 9.850916e-01
1.157450e+04 9.865914e-01
1.157460e+04 9.880781e-01
1.157470e+04 9.895395e-01
1.157480e+04 9.909644e-01
1.157490e+04 9.923418e-01
1.157500e+04 9.936616e-01
1.157510e+04 9.949144e-01
1.157520e+04 9.960914e-01
1.157530e+04 9.971846e-01
1.157540e+04 9.981868e-01
1.157550e+04 9.990916e-01
1.157560e+04 9.998931e-01
1.157570e+04 1.000586e+00
1.157580e+04 1.001167e+00
1.157590e+04 1.001632e+00
1.157600e+04 1.001978e+00
1.157610e+04 1.002203e+00
1.157620e+04 1.002305e+00
1.157630e+04 1.002284e+00
1.157640e+04 1.002139e+00
1.157650e+04 1.001871e+00
1.157660e+04 1.001479e+00
1.157670e+04 1.000967e+00
1.157680e+04 1.000335e+00
1.157690e+04 9.995862e-01
1.157700e+04 9.987233e-01
1.157710e+04 9.977494e-01
1.157720e+04 9.966685e-01
1.157730e+04 9.954847e-01
1.157740e+04 9.942025e-01
1.157750e+04 9.928268e-01
1.157760e+04 9.913627e-01
1.157770e+04 9.898159e-01
1.157780e+04 9.881920e-01
1.157790e+04 9.864970e-01
1.157800e+04 9.847371e-01
1.157810e+04 9.829186e-01
1.157820e+04 9.810479e-01
1.157830e+04 9.791315e-01
1.157840e+04 9.771761e-01
1.157850e+04 9.751880e-01
1.157860e+04 9.731737e-01
1.157870e+04 9.711398e-01
1.157880e+04 9.690924e-01
1.157890e+04 9.670378e-01
1.157900e+04 9.649818e-01
1.157910e+04 9.629302e-01
1.157920e+04 9.608885e-01
1.157930e+04 9.588620e-01
1.157940e+04 9.568557e-01
1.157950e+04 9.548742e-01
1.157960e+04 9.529219e-01
1.157970e+04 9.510029e-01
1.157980e+04 9.491210e-01
1.157990e+04 9.472795e-01
1.158000e+04 9.454815e-01
1.158010e+04 9.437299e-01
1.158020e+04 9.420270e-01
1.158030e+04 9.403750e-01
1.158040e+04 9.387758e-01
1.158050e+04 9.372310e-01
1.158060e+04 9.357418e-01
1.158070e+04 9.343093e-01
1.158080e+04 9.329343e-01
1.158090e+04 9.316173e-01
1.158100e+04 9.303588e-01
1.158110e+04 9.291589e-01
1.158120e+04 9.280176e-01
1.158130e+04 9.269347e-01
1.158140e+04 9.259101e-01
1.158150e+04 9.249432e-01
1.158160e+04 9.240337e-01
1.158170e+04 9.231808e-01
1.158180e+04 9.223839e-01
1.158190e+04 9.216422e-01
1.158200e+04 9.209551e-01
1.158210e+04 9.203216e-01
1.158220e+04 9.197408e-01
1.158230e+04 9.192120e-01
1.158240e+04 9.187341e-01
1.158250e+04 9.183063e-01
1.158260e+04 9.179276e-01
1.158270e+04 9.175971e-01
1.158280e+04 9.173140e-01
1.158290e+04 9.170772e-01
1.158300e+04 9.168859e-01
1.158310e+04 9.167393e-01
1.158320e+04 9.166363e-01
1.158330e+04 9.165762e-01
1.158340e+04 9.165581e-01
1.158350e+04 9.165811e-01
1.158360e+04 9.166444e-01
1.158370e+04 9.167473e-01
1.158380e+04 9.168888e-01
1.158390e+04 9.170682e-01
1.158400e+04 9.172847e-01
1.158410e+04 9.175375e-01
1.158420e+04 9.178257e-01
1.158430e+04 9.181487e-01
1.158440e+04 9.185057e-01
1.158450e+04 9.188958e-01
1.158460e+04 9.193183e-01
1.158470e+04 9.197723e-01
1.158480e+04 9.202572e-01
1.158490e+04 9.207721e-01
1.158500e+04 9.213161e-01
1.158510e+04 9.218886e-01
1.158520e+04 9.224886e-01
1.158530e+04 9.231154e-01
1.158540e+04 9.237681e-01
1.158550e+04 9.244459e-01
1.158560e+04 9.251479e-01
1.158570e+04 9.258733e-01
1.158580e+04 9.266211e-01
1.158590e+04 9.273905e-01
1.158600e+04 9.281805e-01
1.158610e+04 9.289903e-01
1.158620e+04 9.298189e-01
1.158630e+04 9.306653e-01
1.158640e+04 9.315287e-01
1.158650e+04 9.324080e-01
1.158660e+04 9.333021e-01
1.158670e+04 9.342102e-01
1.158680e+04 9.351311e-01
1.158690e+04 9.360640e-01
1.158700e+04 9.370076e-01
1.158710e+04 9.379610e-01
1.158720e+04 9.389230e-01
1.158730e+04 9.398927e-01
1.158740e+04 9.408688e-01
1.158750e+04 9.418504e-01
1.158760e+04 9.428363e-01
1.158770e+04 9.438253e-01
1.158780e+04 9.448165e-01
1.158790e+04 9.458086e-01
1.158800e+04 9.468005e-01
1.158810e+04 9.477911e-01
1.158820e+04 9.487794e-01
1.158830e+04 9.497641e-01
1.158840e+04 9.507442e-01
1.158850e+04 9.517186e-01
1.158860e+04 9.526861e-01
1.158870e+04 9.536458e-01
1.158880e+04 9.545965e-01
1.158890e+04 9.555373e-01
1.158900e+04 9.564670e-01
1.158910e+04 9.573848e-01
1.158920e+04 9.582896e-01
1.158930e+04 9.591804e-01
1.158940e+04 9.600565e-01
1.158950e+04 9.609168e-01
1.158960e+04 9.617606e-01
1.158970e+04 9.625871e-01
1.158980e+04 9.633954e-01
1.158990e+04 9.641848e-01
1.159000e+04 9.649548e-01
1.159010e+04 9.657045e-01
1.159020e+04 9.664335e-01
1.159030e+04 9.671412e-01
1.159040e+04 9.678270e-01
1.159050e+04 9.684907e-01
1.159060e+04 9.691316e-01
1.159070e+04 9.697496e-01
1.159080e+04 9.703443e-01
1.159090e+04 9.709155e-01
1.159100e+04 9.714629e-01
1.159110e+04 9.719866e-01
1.159120e+04 9.724863e-01
1.159130e+04 9.729621e-01
1.159140e+04 9.734140e-01
1.159150e+04 9.738420e-01
1.159160e+04 9.742463e-01
1.159170e+04 9.746270e-01
1.159180e+04 9.749844e-01
1.159190e+04 9.753187e-01
1.159200e+04 9.756302e-01
1.159210e+04 9.759193e-01
1.159220e+04 9.761862e-01
1.159230e+04 9.764316e-01
1.159240e+04 9.766557e-01
1.159250e+04 9.768591e-01
1.159260e+04 9.770423e-01
1.159270e+04 9.772058e-01
1.159280e+04 9.773502e-01
1.159290e+04 9.774761e-01
1.159300e+04 9.775841e-01
1.159310e+04 9.776748e-01
1.159320e+04 9.777488e-01
1.159330e+04 9.778068e-01
1.159340e+04 9.778495e-01
1.159350e+04 9.778775e-01
1.159360e+04 9.778914e-01
1.159370e+04 9.778921e-01
1.159380e+04 9.778801e-01
1.159390e+04 9.778561e-01
1.159400e+04 9.778209e-01
1.159450e+04 9.774984e-01
1.159500e+04 9.769903e-01
1.159550e+04 9.763686e-01
1.159600e+04 9.756937e-01
1.159650e+04 9.750127e-01
1.159700e+04 9.743590e-01
1.159750e+04 9.737530e-01
1.159800e+04 9.732039e-01
1.159850e+04 9.727126e-01
1.159900e+04 9.722748e-01
1.159950e+04 9.718852e-01
1.160000e+04 9.715411e-01
1.160050e+04 9.712453e-01
1.160100e+04 9.710084e-01
1.160150e+04 9.708496e-01
1.160200e+04 9.707962e-01
1.160250e+04 9.708817e-01
1.160300e+04 9.711439e-01
1.160350e+04 9.716212e-01
1.160400e+04 9.723499e-01
1.160450e+04 9.733614e-01
1.160500e+04 9.746800e-01
1.160550e+04 9.763218e-01
1.160600e+04 9.782935e-01
1.160650e+04 9.805927e-01
1.160700e+04 9.832085e-01
1.160750e+04 9.861221e-01
1.160800e+04 9.893081e-01
1.160850e+04 9.927352e-01
1.160900e+04 9.963677e-01
1.160950e+04 1.000166e+00
1.161000e+04 1.004086e+00
1.161050e+04 1.008085e+00
1.161100e+04 1.012113e+00
1.161150e+04 1.016124e+00
1.161200e+04 1.020069e+00
1.161250e+04 1.023899e+00
1.161300e+04 1.027569e+00
1.161350e+04 1.031034e+00
1.161400e+04 1.034255e+00
1.161450e+04 1.037199e+00
1.161500e+04 1.039841e+00
1.161550e+04 1.042161e+00
1.161600e+04 1.044152e+00
1.161650e+04 1.045815e+00
1.161700e+04 1.047158e+00
1.161750e+04 1.048198e+00
1.161800e+04 1.048959e+00
1.161850e+04 1.049468e+00
1.161900e+04 1.049753e+00
1.161950e+04 1.049844e+00
1.162000e+04 1.049769e+00
1.162050e+04 1.049554e+00
1.162100e+04 1.049221e+00
1.162150e+04 1.048790e+00
1.162200e+04 1.048278e+00
