# energy(eV) normalized_intensity
1.141400e+04 6.366608e-04
1.141450e+04 6.188789e-04
1.141500e+04 6.012450e-04
1.141550e+04 5.837601e-04
1.141600e+04 5.664258e-04
1.141650e+04 5.492443e-04
1.141700e+04 5.322166e-04
1.141750e+04 5.153445e-04
1.141800e+04 4.986297e-04
1.141850e+04 4.820740e-04
1.141900e+04 4.656788e-04
1.141950e+04 4.494460e-04
1.142000e+04 4.333775e-04
1.142050e+04 4.174748e-04
1.142100e+04 4.017396e-04
1.142150e+04 3.861742e-04
1.142200e+04 3.707803e-04
1.142250e+04 3.555592e-04
1.142300e+04 3.405137e-04
1.142350e+04 3.256453e-04
1.142400e+04 3.109558e-04
1.142450e+04 2.964474e-04
1.142500e+04 2.821222e-04
1.142550e+04 2.679821e-04
1.142600e+04 2.540292e-04
1.142650e+04 2.402656e-04
1.142700e+04 2.266935e-04
1.142750e+04 2.133150e-04
1.142800e+04 2.001324e-04
1.142850e+04 1.871481e-04
1.142900e+04 1.743640e-04
1.142950e+04 1.617827e-04
1.143000e+04 1.494067e-04
1.143050e+04 1.372377e-04
1.143100e+04 1.252789e-04
1.143150e+04 1.135323e-04
1.143200e+04 1.020007e-04
1.143250e+04 9.068633e-05
1.143300e+04 7.959210e-05
1.143350e+04 6.872028e-05
1.143400e+04 5.807399e-05
1.143450e+04 4.765522e-05
1.143500e+04 3.746739e-05
1.143550e+04 2.751305e-05
1.143600e+04 1.779505e-05
1.143650e+04 8.316235e-06
1.143700e+04 -9.202668e-07
1.143750e+04 -9.911895e-06
1.143800e+04 -1.865524e-05
1.143850e+04 -2.714745e-05
1.143900e+04 -3.538511e-05
1.143950e+04 -4.336539e-05
1.144000e+04 -5.108486e-05
1.144050e+04 -5.854039e-05
1.144100e+04 -6.572830e-05
1.144150e+04 -7.264545e-05
1.144200e+04 -7.928842e-05
1.144250e+04 -8.565381e-05
1.144300e+04 -9.173763e-05
1.144350e+04 -9.753646e-05
1.144400e+04 -1.030466e-04
1.144450e+04 -1.082644e-04
1.144500e+04 -1.131858e-04
1.144550e+04 -1.178069e-04
1.144600e+04 -1.221242e-04
1.144650e+04 -1.261329e-04
1.144700e+04 -1.298296e-04
1.144750e+04 -1.332098e-04
1.144800e+04 -1.362694e-04
1.144850e+04 -1.390036e-04
1.144900e+04 -1.414088e-04
1.144950e+04 -1.434797e-04
1.145000e+04 -1.452119e-04
1.145050e+04 -1.466014e-04
1.145100e+04 -1.476428e-04
1.145150e+04 -1.483314e-04
1.145200e+04 -1.486623e-04
1.145250e+04 -1.486305e-04
1.145300e+04 -1.482312e-04
1.145350e+04 -1.474585e-04
1.145400e+04 -1.463078e-04
1.145450e+04 -1.447737e-04
1.145500e+04 -1.428499e-04
1.145550e+04 -1.405316e-04
1.145600e+04 -1.378128e-04
1.145650e+04 -1.346879e-04
1.145700e+04 -1.311505e-04
1.145750e+04 -1.271951e-04
1.145800e+04 -1.228150e-04
1.145850e+04 -1.180042e-04
1.145900e+04 -1.127560e-04
1.145950e+04 -1.070644e-04
1.146000e+04 -1.009225e-04
1.146050e+04 -9.432319e-05
1.146100e+04 -8.725972e-05
1.146150e+04 -7.972495e-05
1.146200e+04 -7.171176e-05
1.146250e+04 -6.321276e-05
1.146300e+04 -5.422054e-05
1.146350e+04 -4.472715e-05
1.146400e+04 -3.472490e-05
1.146450e+04 -2.420554e-05
1.146500e+04 -1.316112e-05
1.146550e+04 -1.583366e-06
1.146600e+04 1.053652e-05
1.146650e+04 2.320708e-05
1.146700e+04 3.643742e-05
1.146750e+04 5.023635e-05
1.146800e+04 6.461327e-05
1.146850e+04 7.957784e-05
1.146900e+04 9.513945e-05
1.146950e+04 1.113083e-04
1.147000e+04 1.280945e-04
1.147050e+04 1.455081e-04
1.147100e+04 1.635600e-04
1.147150e+04 1.822610e-04
1.147200e+04 2.016222e-04
1.147250e+04 2.216549e-04
1.147300e+04 2.423709e-04
1.147350e+04 2.637815e-04
1.147400e+04 2.858995e-04
1.147450e+04 3.087369e-04
1.147500e+04 3.323065e-04
1.147550e+04 3.566215e-04
1.147600e+04 3.816949e-04
1.147650e+04 4.075406e-04
1.147700e+04 4.341725e-04
1.147750e+04 4.616048e-04
1.147800e+04 4.898527e-04
1.147850e+04 5.189302e-04
1.147900e+04 5.488538e-04
1.147950e+04 5.796386e-04
1.148000e+04 6.113006e-04
1.148050e+04 6.438570e-04
1.148100e+04 6.773245e-04
1.148150e+04 7.117204e-04
1.148200e+04 7.470626e-04
1.148250e+04 7.833695e-04
1.148300e+04 8.206600e-04
1.148350e+04 8.589531e-04
1.148400e+04 8.982689e-04
1.148450e+04 9.386274e-04
1.148500e+04 9.800498e-04
1.148550e+04 1.022557e-03
1.148600e+04 1.066172e-03
1.148650e+04 1.110916e-03
1.148700e+04 1.156814e-03
1.148750e+04 1.203888e-03
1.148800e+04 1.252163e-03
1.148850e+04 1.301665e-03
1.148900e+04 1.352419e-03
1.148950e+04 1.404453e-03
1.149000e+04 1.457792e-03
1.149050e+04 1.512466e-03
1.149100e+04 1.568504e-03
1.149150e+04 1.625935e-03
1.149200e+04 1.684790e-03
1.149250e+04 1.745101e-03
1.149300e+04 1.806899e-03
1.149350e+04 1.870220e-03
1.149400e+04 1.935096e-03
1.149450e+04 2.001565e-03
1.149500e+04 2.069661e-03
1.149550e+04 2.139424e-03
1.149600e+04 2.210892e-03
1.149650e+04 2.284106e-03
1.149700e+04 2.359106e-03
1.149750e+04 2.435935e-03
1.149800e+04 2.514638e-03
1.149850e+04 2.595261e-03
1.149900e+04 2.677849e-03
1.149950e+04 2.762452e-03
1.150000e+04 2.849120e-03
1.150050e+04 2.937906e-03
1.150100e+04 3.028861e-03
1.150150e+04 3.122042e-03
1.150200e+04 3.217507e-03
1.150250e+04 3.315313e-03
1.150300e+04 3.415524e-03
1.150350e+04 3.518202e-03
1.150400e+04 3.623412e-03
1.150450e+04 3.731224e-03
1.150500e+04 3.841707e-03
1.150550e+04 3.954935e-03
1.150600e+04 4.070984e-03
1.150650e+04 4.189931e-03
1.150700e+04 4.311859e-03
1.150750e+04 4.436852e-03
1.150800e+04 4.564998e-03
1.150850e+04 4.696387e-03
1.150900e+04 4.831115e-03
1.150950e+04 4.969280e-03
1.151000e+04 5.110985e-03
1.151050e+04 5.256335e-03
1.151100e+04 5.405441e-03
1.151150e+04 5.558418e-03
1.151200e+04 5.715386e-03
1.151250e+04 5.876469e-03
1.151300e+04 6.041799e-03
1.151350e+04 6.211509e-03
1.151400e+04 6.385742e-03
1.151450e+04 6.564645e-03
1.151500e+04 6.748370e-03
1.151550e+04 6.937081e-03
1.151600e+04 7.130942e-03
1.151650e+04 7.330131e-03
1.151700e+04 7.534830e-03
1.151750e+04 7.745231e-03
1.151800e+04 7.961535e-03
1.151850e+04 8.183951e-03
1.151900e+04 8.412700e-03
1.151950e+04 8.648012e-03
1.152000e+04 8.890129e-03
1.152050e+04 9.139305e-03
1.152100e+04 9.395807e-03
1.152150e+04 9.659914e-03
1.152200e+04 9.931922e-03
1.152250e+04 1.021214e-02
1.152300e+04 1.050089e-02
1.152350e+04 1.079852e-02
1.152400e+04 1.110539e-02
1.152450e+04 1.142188e-02
1.152500e+04 1.174839e-02
1.152550e+04 1.208535e-02
1.152600e+04 1.243321e-02
1.152650e+04 1.279244e-02
1.152700e+04 1.316355e-02
1.152750e+04 1.354706e-02
1.152800e+04 1.394354e-02
1.152850e+04 1.435359e-02
1.152900e+04 1.477784e-02
1.152950e+04 1.521697e-02
1.153000e+04 1.567169e-02
1.153050e+04 1.614278e-02
1.153100e+04 1.663104e-02
1.153150e+04 1.713735e-02
1.153200e+04 1.766263e-02
1.153250e+04 1.820787e-02
1.153300e+04 1.877413e-02
1.153350e+04 1.936255e-02
1.153400e+04 1.997434e-02
1.153450e+04 2.061082e-02
1.153500e+04 2.127339e-02
1.153550e+04 2.196356e-02
1.153600e+04 2.268295e-02
1.153650e+04 2.343334e-02
1.153700e+04 2.421661e-02
1.153750e+04 2.503482e-02
1.153800e+04 2.589020e-02
1.153850e+04 2.678517e-02
1.153900e+04 2.772234e-02
1.153950e+04 2.870459e-02
1.154000e+04 2.973503e-02
1.154050e+04 3.081705e-02
1.154100e+04 3.195440e-02
1.154150e+04 3.315116e-02
1.154200e+04 3.441182e-02
1.154250e+04 3.574133e-02
1.154300e+04 3.714514e-02
1.154350e+04 3.862928e-02
1.154400e+04 4.020046e-02
1.154450e+04 4.186609e-02
1.154500e+04 4.363446e-02
1.154550e+04 4.551482e-02
1.154600e+04 4.751753e-02
1.154650e+04 4.965423e-02
1.154700e+04 5.193803e-02
1.154750e+04 5.438377e-02
1.154800e+04 5.700827e-02
1.154850e+04 5.983068e-02
1.154900e+04 6.287291e-02
1.154950e+04 6.616005e-02
1.155000e+04 6.972107e-02
1.155050e+04 7.358944e-02
1.155100e+04 7.780412e-02
1.155150e+04 8.241062e-02
1.155200e+04 8.746237e-02
1.155250e+04 9.302253e-02
1.155300e+04 9.916609e-02
1.155350e+04 1.059827e-01
1.155400e+04 1.135803e-01
1.155410e+04 1.152045e-01
1.155420e+04 1.168664e-01
1.155430e+04 1.185669e-01
1.155440e+04 1.203075e-01
1.155450e+04 1.220895e-01
1.155460e+04 1.239142e-01
1.155470e+04 1.257831e-01
1.155480e+04 1.276976e-01
1.155490e+04 1.296593e-01
1.155500e+04 1.316699e-01
1.155510e+04 1.337310e-01
1.155520e+04 1.358445e-01
1.155530e+04 1.380121e-01
1.155540e+04 1.402358e-01
1.155550e+04 1.425176e-01
1.155560e+04 1.448597e-01
1.155570e+04 1.472641e-01
1.155580e+04 1.497333e-01
1.155590e+04 1.522697e-01
1.155600e+04 1.548757e-01
1.155610e+04 1.575541e-01
1.155620e+04 1.603075e-01
1.155630e+04 1.631389e-01
1.155640e+04 1.660514e-01
1.155650e+04 1.690480e-01
1.155660e+04 1.721322e-01
1.155670e+04 1.753075e-01
1.155680e+04 1.785774e-01
1.155690e+04 1.819460e-01
1.155700e+04 1.854171e-01
1.155710e+04 1.889952e-01
1.155720e+04 1.926846e-01
1.155730e+04 1.964901e-01
1.155740e+04 2.004165e-01
1.155750e+04 2.044691e-01
1.155760e+04 2.086533e-01
1.155770e+04 2.129749e-01
1.155780e+04 2.174399e-01
1.155790e+04 2.220546e-01
1.155800e+04 2.268258e-01
1.155810e+04 2.317604e-01
1.155820e+04 2.368659e-01
1.155830e+04 2.421502e-01
1.155840e+04 2.476213e-01
1.155850e+04 2.532880e-01
1.155860e+04 2.591594e-01
1.155870e+04 2.652450e-01
1.155880e+04 2.715551e-01
1.155890e+04 2.781001e-01
1.155900e+04 2.848914e-01
1.155910e+04 2.919406e-01
1.155920e+04 2.992602e-01
1.155930e+04 3.068633e-01
1.155940e+04 3.147633e-01
1.155950e+04 3.229748e-01
1.155960e+04 3.315128e-01
1.155970e+04 3.403931e-01
1.155980e+04 3.496321e-01
1.155990e+04 3.592472e-01
1.156000e+04 3.692562e-01
1.156010e+04 3.796780e-01
1.156020e+04 3.905320e-01
1.156030e+04 4.018383e-01
1.156040e+04 4.136178e-01
1.156050e+04 4.258918e-01
1.156060e+04 4.386823e-01
1.156070e+04 4.520115e-01
1.156080e+04 4.659020e-01
1.156090e+04 4.803765e-01
1.156100e+04 4.954575e-01
1.156110e+04 5.111671e-01
1.156120e+04 5.275269e-01
1.156130e+04 5.445573e-01
1.156140e+04 5.622770e-01
1.156150e+04 5.807030e-01
1.156160e+04 5.998495e-01
1.156170e+04 6.197273e-01
1.156180e+04 6.403433e-01
1.156190e+04 6.616993e-01
1.156200e+04 6.837913e-01
1.156210e+04 7.066082e-01
1.156220e+04 7.301310e-01
1.156230e+04 7.543316e-01
1.156240e+04 7.791713e-01
1.156250e+04 8.046004e-01
1.156260e+04 8.305566e-01
1.156270e+04 8.569643e-01
1.156280e+04 8.837342e-01
1.156290e+04 9.107627e-01
1.156300e+04 9.379324e-01
1.156310e+04 9.651122e-01
1.156320e+04 9.921589e-01
1.156330e+04 1.018919e+00
1.156340e+04 1.045230e+00
1.156350e+04 1.070924e+00
1.156360e+04 1.095834e+00
1.156370e+04 1.119792e+00
1.156380e+04 1.142638e+00
1.156390e+04 1.164221e+00
1.156400e+04 1.184406e+00
1.156410e+04 1.203073e+00
1.156420e+04 1.220122e+00
1.156430e+04 1.235479e+00
1.156440e+04 1.249094e+00
1.156450e+04 1.260939e+00
1.156460e+04 1.271013e+00
1.156470e+04 1.279336e+00
1.156480e+04 1.285949e+00
1.156490e+04 1.290908e+00
1.156500e+04 1.294287e+00
1.156510e+04 1.296171e+00
1.156520e+04 1.296652e+00
1.156530e+04 1.295829e+00
1.156540e+04 1.293806e+00
1.156550e+04 1.290686e+00
1.156560e+04 1.286574e+00
1.156570e+04 1.281570e+00
1.156580e+04 1.275776e+00
1.156590e+04 1.269286e+00
1.156600e+04 1.262192e+00
1.156610e+04 1.254580e+00
1.156620e+04 1.246534e+00
1.156630e+04 1.238131e+00
1.156640e+04 1.229444e+00
1.156650e+04 1.220541e+00
1.156660e+04 1.211485e+00
1.156670e+04 1.202336e+00
1.156680e+04 1.193148e+00
1.156690e+04 1.183971e+00
1.156700e+04 1.174851e+00
1.156710e+04 1.165830e+00
1.156720e+04 1.156946e+00
1.156730e+04 1.148232e+00
1.156740e+04 1.139719e+00
1.156750e+04 1.131434e+00
1.156760e+04 1.123399e+00
1.156770e+04 1.115633e+00
1.156780e+04 1.108153e+00
1.156790e+04 1.100972e+00
1.156800e+04 1.094100e+00
1.156810e+04 1.087544e+00
1.156820e+04 1.081308e+00
1.156830e+04 1.075394e+00
1.156840e+04 1.069800e+00
1.156850e+04 1.064523e+00
1.156860e+04 1.059558e+00
1.156870e+04 1.054896e+00
1.156880e+04 1.050526e+00
1.156890e+04 1.046436e+00
1.156900e+04 1.042611e+00
1.156910e+04 1.039034e+00
1.156920e+04 1.035688e+00
1.156930e+04 1.032552e+00
1.156940e+04 1.029606e+00
1.156950e+04 1.026827e+00
1.156960e+04 1.024191e+00
1.156970e+04 1.021676e+00
1.156980e+04 1.019258e+00
1.156990e+04 1.016912e+00
1.157000e+04 1.014618e+00
1.157010e+04 1.012354e+00
1.157020e+04 1.010099e+00
1.157030e+04 1.007838e+00
1.157040e+04 1.005554e+00
1.157050e+04 1.003237e+00
1.157060e+04 1.000878e+00
1.157070e+04 9.984718e-01
1.157080e+04 9.960167e-01
1.157090e+04 9.935150e-01
1.157100e+04 9.909723e-01
1.157110e+04 9.883976e-01
1.157120e+04 9.858029e-01
1.157130e+04 9.832029e-01
1.157140e+04 9.806147e-01
1.157150e+04 9.780572e-01
1.157160e+04 9.755508e-01
1.157170e+04 9.731166e-01
1.157180e+04 9.707765e-01
1.157190e+04 9.685523e-01
1.157200e+04 9.664653e-01
1.157210e+04 9.645361e-01
1.157220e+04 9.627843e-01
1.157230e+04 9.612281e-01
1.157240e+04 9.598841e-01
1.157250e+04 9.587671e-01
1.157260e+04 9.578898e-01
1.157270e+04 9.572629e-01
1.157280e+04 9.568951e-01
1.157290e+04 9.567925e-01
1.157300e+04 9.569593e-01
1.157310e+04 9.573971e-01
1.157320e+04 9.581055e-01
1.157330e+04 9.590816e-01
1.157340e+04 9.603203e-01
1.157350e+04 9.618145e-01
1.157360e+04 9.635549e-01
1.157370e+04 9.655304e-01
1.157380e+04 9.677277e-01
1.157390e+04 9.701320e-01
1.157400e+04 9.727271e-01
1.157410e+04 9.754953e-01
1.157420e+04 9.784175e-01
1.157430e+04 9.814741e-01
1.157440e+04 9.846444e-01
1.157450e+04 9.879075e-01
1.157460e+04 9.912419e-01
1.157470e+04 9.946265e-01
1.157480e+04 9.980400e-01
1.157490e+04 1.001462e+00
1.157500e+04 1.004872e+00
1.157510e+04 1.008250e+00
1.157520e+04 1.011579e+00
1.157530e+04 1.014839e+00
1.157540e+04 1.018016e+00
1.157550e+04 1.021094e+00
1.157560e+04 1.024057e+00
1.157570e+04 1.026894e+00
1.157580e+04 1.029591e+00
1.157590e+04 1.032138e+00
1.157600e+04 1.034524e+00
1.157610e+04 1.036742e+00
1.157620e+04 1.038782e+00
1.157630e+04 1.040637e+00
1.157640e+04 1.042302e+00
1.157650e+04 1.043769e+00
1.157660e+04 1.045033e+00
1.157670e+04 1.046091e+00
1.157680e+04 1.046937e+00
1.157690e+04 1.047568e+00
1.157700e+04 1.047980e+00
1.157710e+04 1.048170e+00
1.157720e+04 1.048136e+00
1.157730e+04 1.047873e+00
1.157740e+04 1.047381e+00
1.157750e+04 1.046657e+00
1.157760e+04 1.045699e+00
1.157770e+04 1.044507e+00
1.157780e+04 1.043079e+00
1.157790e+04 1.041417e+00
1.157800e+04 1.039520e+00
1.157810e+04 1.037391e+00
1.157820e+04 1.035032e+00
1.157830e+04 1.032449e+00
1.157840e+04 1.029646e+00
1.157850e+04 1.026630e+00
1.157860e+04 1.023409e+00
1.157870e+04 1.019993e+00
1.157880e+04 1.016392e+00
1.157890e+04 1.012618e+00
1.157900e+04 1.008684e+00
1.157910e+04 1.004604e+00
1.157920e+04 1.000392e+00
1.157930e+04 9.960654e-01
1.157940e+04 9.916389e-01
1.157950e+04 9.871298e-01
1.157960e+04 9.825553e-01
1.157970e+04 9.779329e-01
1.157980e+04 9.732805e-01
1.157990e+04 9.686159e-01
1.158000e+04 9.639571e-01
1.158010e+04 9.593221e-01
1.158020e+04 9.547287e-01
1.158030e+04 9.501944e-01
1.158040e+04 9.457365e-01
1.158050e+04 9.413714e-01
1.158060e+04 9.371151e-01
1.158070e+04 9.329825e-01
1.158080e+04 9.289877e-01
1.158090e+04 9.251433e-01
1.158100e+04 9.214606e-01
1.158110e+04 9.179495e-01
1.158120e+04 9.146181e-01
1.158130e+04 9.114728e-01
1.158140e+04 9.085182e-01
1.158150e+04 9.057572e-01
1.158160e+04 9.031907e-01
1.158170e+04 9.008177e-01
1.158180e+04 8.986358e-01
1.158190e+04 8.966406e-01
1.158200e+04 8.948264e-01
1.158210e+04 8.931860e-01
1.158220e+04 8.917112e-01
1.158230e+04 8.903923e-01
1.158240e+04 8.892192e-01
1.158250e+04 8.881811e-01
1.158260e+04 8.872665e-01
1.158270e+04 8.864641e-01
1.158280e+04 8.857624e-01
1.158290e+04 8.851502e-01
1.158300e+04 8.846169e-01
1.158310e+04 8.841526e-01
1.158320e+04 8.837482e-01
1.158330e+04 8.833957e-01
1.158340e+04 8.830883e-01
1.158350e+04 8.828207e-01
1.158360e+04 8.825886e-01
1.158370e+04 8.823896e-01
1.158380e+04 8.822224e-01
1.158390e+04 8.820874e-01
1.158400e+04 8.819862e-01
1.158410e+04 8.819217e-01
1.158420e+04 8.818979e-01
1.158430e+04 8.819198e-01
1.158440e+04 8.819933e-01
1.158450e+04 8.821248e-01
1.158460e+04 8.823211e-01
1.158470e+04 8.825893e-01
1.158480e+04 8.829364e-01
1.158490e+04 8.833695e-01
1.158500e+04 8.838949e-01
1.158510e+04 8.845187e-01
1.158520e+04 8.852463e-01
1.158530e+04 8.860823e-01
1.158540e+04 8.870304e-01
1.158550e+04 8.880934e-01
1.158560e+04 8.892734e-01
1.158570e+04 8.905712e-01
1.158580e+04 8.919872e-01
1.158590e+04 8.935207e-01
1.158600e+04 8.951704e-01
1.158610e+04 8.969345e-01
1.158620e+04 8.988109e-01
1.158630e+04 9.007972e-01
1.158640e+04 9.028908e-01
1.158650e+04 9.050895e-01
1.158660e+04 9.073910e-01
1.158670e+04 9.097937e-01
1.158680e+04 9.122964e-01
1.158690e+04 9.148983e-01
1.158700e+04 9.175995e-01
1.158710e+04 9.204006e-01
1.158720e+04 9.233030e-01
1.158730e+04 9.263085e-01
1.158740e+04 9.294195e-01
1.158750e+04 9.326389e-01
1.158760e+04 9.359697e-01
1.158770e+04 9.394152e-01
1.158780e+04 9.429784e-01
1.158790e+04 9.466625e-01
1.158800e+04 9.504700e-01
1.158810e+04 9.544028e-01
1.158820e+04 9.584623e-01
1.158830e+04 9.626490e-01
1.158840e+04 9.669621e-01
1.158850e+04 9.713999e-01
1.158860e+04 9.759592e-01
1.158870e+04 9.806354e-01
1.158880e+04 9.854225e-01
1.158890e+04 9.903127e-01
1.158900e+04 9.952966e-01
1.158910e+04 1.000363e+00
1.158920e+04 1.005499e+00
1.158930e+04 1.010691e+00
1.158940e+04 1.015921e+00
1.158950e+04 1.021172e+00
1.158960e+04 1.026424e+00
1.158970e+04 1.031657e+00
1.158980e+04 1.036848e+00
1.158990e+04 1.041975e+00
1.159000e+04 1.047012e+00
1.159010e+04 1.051936e+00
1.159020e+04 1.056720e+00
1.159030e+04 1.061342e+00
1.159040e+04 1.065775e+00
1.159050e+04 1.069995e+00
1.159060e+04 1.073981e+00
1.159070e+04 1.077709e+00
1.159080e+04 1.081161e+00
1.159090e+04 1.084318e+00
1.159100e+04 1.087163e+00
1.159110e+04 1.089685e+00
1.159120e+04 1.091872e+00
1.159130e+04 1.093717e+00
1.159140e+04 1.095214e+00
1.159150e+04 1.096362e+00
1.159160e+04 1.097161e+00
1.159170e+04 1.097616e+00
1.159180e+04 1.097733e+00
1.159190e+04 1.097522e+00
1.159200e+04 1.096995e+00
1.159210e+04 1.096167e+00
1.159220e+04 1.095053e+00
1.159230e+04 1.093672e+00
1.159240e+04 1.092044e+00
1.159250e+04 1.090188e+00
1.159260e+04 1.088128e+00
1.159270e+04 1.085884e+00
1.159280e+04 1.083479e+00
1.159290e+04 1.080935e+00
1.159300e+04 1.078274e+00
1.159310e+04 1.075518e+00
1.159320e+04 1.072686e+00
1.159330e+04 1.069797e+00
1.159340e+04 1.066871e+00
1.159350e+04 1.063923e+00
1.159360e+04 1.060969e+00
1.159370e+04 1.058023e+00
1.159380e+04 1.055096e+00
1.159390e+04 1.052200e+00
1.159400e+04 1.049344e+00
1.159450e+04 1.035877e+00
1.159500e+04 1.024035e+00
1.159550e+04 1.013856e+00
1.159600e+04 1.005310e+00
1.159650e+04 9.985418e-01
1.159700e+04 9.938683e-01
1.159750e+04 9.915634e-01
1.159800e+04 9.916040e-01
1.159850e+04 9.935144e-01
1.159900e+04 9.963846e-01
1.159950e+04 9.990521e-01
1.160000e+04 1.000384e+00
1.160050e+04 9.995594e-01
1.160100e+04 9.962579e-01
1.160150e+04 9.906961e-01
1.160200e+04 9.835186e-01
1.160250e+04 9.756056e-01
1.160300e+04 9.678741e-01
1.160350e+04 9.611266e-01
1.160400e+04 9.559642e-01
1.160450e+04 9.527567e-01
1.160500e+04 9.516508e-01
1.160550e+04 9.526024e-01
1.160600e+04 9.554232e-01
1.160650e+04 9.598380e-01
1.160700e+04 9.655461e-01
1.160750e+04 9.722754e-01
1.160800e+04 9.798129e-01
1.160850e+04 9.880064e-01
1.160900e+04 9.967444e-01
1.160950e+04 1.005932e+00
1.161000e+04 1.015474e+00
1.161050e+04 1.025277e+00
1.161100e+04 1.035245e+00
1.161150e+04 1.045285e+00
1.161200e+04 1.055295e+00
1.161250e+04 1.065146e+00
1.161300e+04 1.074663e+00
1.161350e+04 1.083614e+00
1.161400e+04 1.091713e+00
1.161450e+04 1.098647e+00
1.161500e+04 1.104123e+00
1.161550e+04 1.107921e+00
1.161600e+04 1.109950e+00
1.161650e+04 1.110276e+00
1.161700e+04 1.109119e+00
1.161750e+04 1.106820e+00
1.161800e+04 1.103773e+00
1.161850e+04 1.100361e+00
1.161900e+04 1.096903e+00
1.161950e+04 1.093617e+00
1.162000e+04 1.090617e+00
1.162050e+04 1.087925e+00
1.162100e+04 1.085503e+00
1.162150e+04 1.083279e+00
1.162200e+04 1.081177e+00
