# energy(eV) normalized_intensity
1.141400e+04 6.386572e-04
1.141450e+04 6.208195e-04
1.141500e+04 6.031300e-04
1.141550e+04 5.855901e-04
1.141600e+04 5.682013e-04
1.141650e+04 5.509658e-04
1.141700e+04 5.338846e-04
1.141750e+04 5.169594e-04
1.141800e+04 5.001920e-04
1.141850e+04 4.835844e-04
1.141900e+04 4.671376e-04
1.141950e+04 4.508538e-04
1.142000e+04 4.347349e-04
1.142050e+04 4.187822e-04
1.142100e+04 4.029976e-04
1.142150e+04 3.873834e-04
1.142200e+04 3.719411e-04
1.142250e+04 3.566723e-04
1.142300e+04 3.415795e-04
1.142350e+04 3.266645e-04
1.142400e+04 3.119289e-04
1.142450e+04 2.973751e-04
1.142500e+04 2.830049e-04
1.142550e+04 2.688205e-04
1.142600e+04 2.548238e-04
1.142650e+04 2.410172e-04
1.142700e+04 2.274025e-04
1.142750e+04 2.139821e-04
1.142800e+04 2.007583e-04
1.142850e+04 1.877333e-04
1.142900e+04 1.749091e-04
1.142950e+04 1.622884e-04
1.143000e+04 1.498737e-04
1.143050e+04 1.376667e-04
1.143100e+04 1.256704e-04
1.143150e+04 1.138871e-04
1.143200e+04 1.023194e-04
1.143250e+04 9.096965e-05
1.143300e+04 7.984074e-05
1.143350e+04 6.893494e-05
1.143400e+04 5.825537e-05
1.143450e+04 4.780405e-05
1.143500e+04 3.758439e-05
1.143550e+04 2.759896e-05
1.143600e+04 1.785061e-05
1.143650e+04 8.342196e-06
1.143700e+04 -9.231393e-07
1.143750e+04 -9.942831e-06
1.143800e+04 -1.871346e-05
1.143850e+04 -2.723216e-05
1.143900e+04 -3.549552e-05
1.143950e+04 -4.350068e-05
1.144000e+04 -5.124421e-05
1.144050e+04 -5.872299e-05
1.144100e+04 -6.593330e-05
1.144150e+04 -7.287200e-05
1.144200e+04 -7.953566e-05
1.144250e+04 -8.592087e-05
1.144300e+04 -9.202363e-05
1.144350e+04 -9.784051e-05
1.144400e+04 -1.033678e-04
1.144450e+04 -1.086018e-04
1.144500e+04 -1.135385e-04
1.144550e+04 -1.181740e-04
1.144600e+04 -1.225047e-04
1.144650e+04 -1.265259e-04
1.144700e+04 -1.302340e-04
1.144750e+04 -1.336247e-04
1.144800e+04 -1.366938e-04
1.144850e+04 -1.394365e-04
1.144900e+04 -1.418491e-04
1.144950e+04 -1.439264e-04
1.145000e+04 -1.456640e-04
1.145050e+04 -1.470578e-04
1.145100e+04 -1.481023e-04
1.145150e+04 -1.487931e-04
1.145200e+04 -1.491249e-04
1.145250e+04 -1.490930e-04
1.145300e+04 -1.486924e-04
1.145350e+04 -1.479173e-04
1.145400e+04 -1.467629e-04
1.145450e+04 -1.452240e-04
1.145500e+04 -1.432942e-04
1.145550e+04 -1.409686e-04
1.145600e+04 -1.382414e-04
1.145650e+04 -1.351067e-04
1.145700e+04 -1.315583e-04
1.145750e+04 -1.275905e-04
1.145800e+04 -1.231967e-04
1.145850e+04 -1.183709e-04
1.145900e+04 -1.131064e-04
1.145950e+04 -1.073970e-04
1.146000e+04 -1.012360e-04
1.146050e+04 -9.461621e-05
1.146100e+04 -8.753078e-05
1.146150e+04 -7.997258e-05
1.146200e+04 -7.193448e-05
1.146250e+04 -6.340906e-05
1.146300e+04 -5.438890e-05
1.146350e+04 -4.486602e-05
1.146400e+04 -3.483270e-05
1.146450e+04 -2.428068e-05
1.146500e+04 -1.320196e-05
1.146550e+04 -1.588280e-06
1.146600e+04 1.056922e-05
1.146650e+04 2.327909e-05
1.146700e+04 3.655047e-05
1.146750e+04 5.039220e-05
1.146800e+04 6.481369e-05
1.146850e+04 7.982466e-05
1.146900e+04 9.543450e-05
1.146950e+04 1.116535e-04
1.147000e+04 1.284916e-04
1.147050e+04 1.459592e-04
1.147100e+04 1.640670e-04
1.147150e+04 1.828259e-04
1.147200e+04 2.022471e-04
1.147250e+04 2.223418e-04
1.147300e+04 2.431220e-04
1.147350e+04 2.645988e-04
1.147400e+04 2.867853e-04
1.147450e+04 3.096933e-04
1.147500e+04 3.333358e-04
1.147550e+04 3.577261e-04
1.147600e+04 3.828770e-04
1.147650e+04 4.088026e-04
1.147700e+04 4.355168e-04
1.147750e+04 4.630339e-04
1.147800e+04 4.913691e-04
1.147850e+04 5.205365e-04
1.147900e+04 5.505525e-04
1.147950e+04 5.814324e-04
1.148000e+04 6.131922e-04
1.148050e+04 6.458491e-04
1.148100e+04 6.794199e-04
1.148150e+04 7.139220e-04
1.148200e+04 7.493734e-04
1.148250e+04 7.857923e-04
1.148300e+04 8.231978e-04
1.148350e+04 8.616091e-04
1.148400e+04 9.010462e-04
1.148450e+04 9.415292e-04
1.148500e+04 9.830794e-04
1.148550e+04 1.025718e-03
1.148600e+04 1.069467e-03
1.148650e+04 1.114349e-03
1.148700e+04 1.160388e-03
1.148750e+04 1.207608e-03
1.148800e+04 1.256032e-03
1.148850e+04 1.305686e-03
1.148900e+04 1.356597e-03
1.148950e+04 1.408790e-03
1.149000e+04 1.462294e-03
1.149050e+04 1.517136e-03
1.149100e+04 1.573347e-03
1.149150e+04 1.630955e-03
1.149200e+04 1.689991e-03
1.149250e+04 1.750487e-03
1.149300e+04 1.812476e-03
1.149350e+04 1.875991e-03
1.149400e+04 1.941067e-03
1.149450e+04 2.007740e-03
1.149500e+04 2.076046e-03
1.149550e+04 2.146024e-03
1.149600e+04 2.217711e-03
1.149650e+04 2.291150e-03
1.149700e+04 2.366380e-03
1.149750e+04 2.443446e-03
1.149800e+04 2.522391e-03
1.149850e+04 2.603261e-03
1.149900e+04 2.686103e-03
1.149950e+04 2.770966e-03
1.150000e+04 2.857901e-03
1.150050e+04 2.946959e-03
1.150100e+04 3.038194e-03
1.150150e+04 3.131661e-03
1.150200e+04 3.227418e-03
1.150250e+04 3.325525e-03
1.150300e+04 3.426043e-03
1.150350e+04 3.529036e-03
1.150400e+04 3.634570e-03
1.150450e+04 3.742712e-03
1.150500e+04 3.853535e-03
1.150550e+04 3.967110e-03
1.150600e+04 4.083514e-03
1.150650e+04 4.202827e-03
1.150700e+04 4.325128e-03
1.150750e+04 4.450504e-03
1.150800e+04 4.579043e-03
1.150850e+04 4.710835e-03
1.150900e+04 4.845976e-03
1.150950e+04 4.984565e-03
1.151000e+04 5.126704e-03
1.151050e+04 5.272499e-03
1.151100e+04 5.422062e-03
1.151150e+04 5.575507e-03
1.151200e+04 5.732956e-03
1.151250e+04 5.894533e-03
1.151300e+04 6.060369e-03
1.151350e+04 6.230599e-03
1.151400e+04 6.405365e-03
1.151450e+04 6.584816e-03
1.151500e+04 6.769104e-03
1.151550e+04 6.958392e-03
1.151600e+04 7.152847e-03
1.151650e+04 7.352645e-03
1.151700e+04 7.557971e-03
1.151750e+04 7.769016e-03
1.151800e+04 7.985981e-03
1.151850e+04 8.209077e-03
1.151900e+04 8.438526e-03
1.151950e+04 8.674557e-03
1.152000e+04 8.917415e-03
1.152050e+04 9.167353e-03
1.152100e+04 9.424639e-03
1.152150e+04 9.689554e-03
1.152200e+04 9.962393e-03
1.152250e+04 1.024347e-02
1.152300e+04 1.053310e-02
1.152350e+04 1.083164e-02
1.152400e+04 1.113945e-02
1.152450e+04 1.145690e-02
1.152500e+04 1.178441e-02
1.152550e+04 1.212241e-02
1.152600e+04 1.247133e-02
1.152650e+04 1.283165e-02
1.152700e+04 1.320389e-02
1.152750e+04 1.358857e-02
1.152800e+04 1.398626e-02
1.152850e+04 1.439756e-02
1.152900e+04 1.482311e-02
1.152950e+04 1.526358e-02
1.153000e+04 1.571970e-02
1.153050e+04 1.619222e-02
1.153100e+04 1.668197e-02
1.153150e+04 1.718983e-02
1.153200e+04 1.771671e-02
1.153250e+04 1.826361e-02
1.153300e+04 1.883160e-02
1.153350e+04 1.942181e-02
1.153400e+04 2.003547e-02
1.153450e+04 2.067389e-02
1.153500e+04 2.133848e-02
1.153550e+04 2.203075e-02
1.153600e+04 2.275234e-02
1.153650e+04 2.350502e-02
1.153700e+04 2.429068e-02
1.153750e+04 2.511139e-02
1.153800e+04 2.596937e-02
1.153850e+04 2.686707e-02
1.153900e+04 2.780710e-02
1.153950e+04 2.879234e-02
1.154000e+04 2.982592e-02
1.154050e+04 3.091124e-02
1.154100e+04 3.205205e-02
1.154150e+04 3.325246e-02
1.154200e+04 3.451696e-02
1.154250e+04 3.585052e-02
1.154300e+04 3.725861e-02
1.154350e+04 3.874728e-02
1.154400e+04 4.032324e-02
1.154450e+04 4.199394e-02
1.154500e+04 4.376770e-02
1.154550e+04 4.565379e-02
1.154600e+04 4.766260e-02
1.154650e+04 4.980580e-02
1.154700e+04 5.209656e-02
1.154750e+04 5.454974e-02
1.154800e+04 5.718224e-02
1.154850e+04 6.001324e-02
1.154900e+04 6.306473e-02
1.154950e+04 6.636189e-02
1.155000e+04 6.993374e-02
1.155050e+04 7.381390e-02
1.155100e+04 7.804141e-02
1.155150e+04 8.266192e-02
1.155200e+04 8.772906e-02
1.155250e+04 9.330614e-02
1.155300e+04 9.946839e-02
1.155350e+04 1.063058e-01
1.155400e+04 1.139265e-01
1.155410e+04 1.155557e-01
1.155420e+04 1.172225e-01
1.155430e+04 1.189283e-01
1.155440e+04 1.206742e-01
1.155450e+04 1.224616e-01
1.155460e+04 1.242918e-01
1.155470e+04 1.261664e-01
1.155480e+04 1.280867e-01
1.155490e+04 1.300544e-01
1.155500e+04 1.320711e-01
1.155510e+04 1.341385e-01
1.155520e+04 1.362584e-01
1.155530e+04 1.384326e-01
1.155540e+04 1.406631e-01
1.155550e+04 1.429519e-01
1.155560e+04 1.453010e-01
1.155570e+04 1.477128e-01
1.155580e+04 1.501895e-01
1.155590e+04 1.527336e-01
1.155600e+04 1.553476e-01
1.155610e+04 1.580341e-01
1.155620e+04 1.607959e-01
1.155630e+04 1.636359e-01
1.155640e+04 1.665572e-01
1.155650e+04 1.695630e-01
1.155660e+04 1.726566e-01
1.155670e+04 1.758415e-01
1.155680e+04 1.791214e-01
1.155690e+04 1.825002e-01
1.155700e+04 1.859819e-01
1.155710e+04 1.895709e-01
1.155720e+04 1.932715e-01
1.155730e+04 1.970885e-01
1.155740e+04 2.010269e-01
1.155750e+04 2.050918e-01
1.155760e+04 2.092888e-01
1.155770e+04 2.136235e-01
1.155780e+04 2.181021e-01
1.155790e+04 2.227308e-01
1.155800e+04 2.275165e-01
1.155810e+04 2.324662e-01
1.155820e+04 2.375872e-01
1.155830e+04 2.428875e-01
1.155840e+04 2.483753e-01
1.155850e+04 2.540593e-01
1.155860e+04 2.599485e-01
1.155870e+04 2.660527e-01
1.155880e+04 2.723819e-01
1.155890e+04 2.789469e-01
1.155900e+04 2.857588e-01
1.155910e+04 2.928295e-01
1.155920e+04 3.001714e-01
1.155930e+04 3.077975e-01
1.155940e+04 3.157216e-01
1.155950e+04 3.239581e-01
1.155960e+04 3.325221e-01
1.155970e+04 3.414293e-01
1.155980e+04 3.506965e-01
1.155990e+04 3.603408e-01
1.156000e+04 3.703803e-01
1.156010e+04 3.808338e-01
1.156020e+04 3.917208e-01
1.156030e+04 4.030615e-01
1.156040e+04 4.148768e-01
1.156050e+04 4.271881e-01
1.156060e+04 4.400175e-01
1.156070e+04 4.533872e-01
1.156080e+04 4.673200e-01
1.156090e+04 4.818385e-01
1.156100e+04 4.969654e-01
1.156110e+04 5.127228e-01
1.156120e+04 5.291324e-01
1.156130e+04 5.462145e-01
1.156140e+04 5.639881e-01
1.156150e+04 5.824702e-01
1.156160e+04 6.016749e-01
1.156170e+04 6.216132e-01
1.156180e+04 6.422919e-01
1.156190e+04 6.637128e-01
1.156200e+04 6.858720e-01
1.156210e+04 7.087583e-01
1.156220e+04 7.323526e-01
1.156230e+04 7.566267e-01
1.156240e+04 7.815420e-01
1.156250e+04 8.070484e-01
1.156260e+04 8.330835e-01
1.156270e+04 8.595715e-01
1.156280e+04 8.864228e-01
1.156290e+04 9.135335e-01
1.156300e+04 9.407858e-01
1.156310e+04 9.680482e-01
1.156320e+04 9.951771e-01
1.156330e+04 1.022018e+00
1.156340e+04 1.048409e+00
1.156350e+04 1.074182e+00
1.156360e+04 1.099168e+00
1.156370e+04 1.123198e+00
1.156380e+04 1.146114e+00
1.156390e+04 1.167762e+00
1.156400e+04 1.188009e+00
1.156410e+04 1.206730e+00
1.156420e+04 1.223823e+00
1.156430e+04 1.239213e+00
1.156440e+04 1.252849e+00
1.156450e+04 1.264705e+00
1.156460e+04 1.274778e+00
1.156470e+04 1.283091e+00
1.156480e+04 1.289682e+00
1.156490e+04 1.294613e+00
1.156500e+04 1.297955e+00
1.156510e+04 1.299794e+00
1.156520e+04 1.300226e+00
1.156530e+04 1.299350e+00
1.156540e+04 1.297270e+00
1.156550e+04 1.294091e+00
1.156560e+04 1.289918e+00
1.156570e+04 1.284854e+00
1.156580e+04 1.279000e+00
1.156590e+04 1.272451e+00
1.156600e+04 1.265300e+00
1.156610e+04 1.257635e+00
1.156620e+04 1.249538e+00
1.156630e+04 1.241088e+00
1.156640e+04 1.232358e+00
1.156650e+04 1.223415e+00
1.156660e+04 1.214325e+00
1.156670e+04 1.205146e+00
1.156680e+04 1.195932e+00
1.156690e+04 1.186733e+00
1.156700e+04 1.177597e+00
1.156710e+04 1.168563e+00
1.156720e+04 1.159670e+00
1.156730e+04 1.150951e+00
1.156740e+04 1.142436e+00
1.156750e+04 1.134152e+00
1.156760e+04 1.126119e+00
1.156770e+04 1.118359e+00
1.156780e+04 1.110886e+00
1.156790e+04 1.103712e+00
1.156800e+04 1.096848e+00
1.156810e+04 1.090300e+00
1.156820e+04 1.084071e+00
1.156830e+04 1.078163e+00
1.156840e+04 1.072574e+00
1.156850e+04 1.067299e+00
1.156860e+04 1.062333e+00
1.156870e+04 1.057667e+00
1.156880e+04 1.053290e+00
1.156890e+04 1.049188e+00
1.156900e+04 1.045348e+00
1.156910e+04 1.041751e+00
1.156920e+04 1.038381e+00
1.156930e+04 1.035217e+00
1.156940e+04 1.032237e+00
1.156950e+04 1.029421e+00
1.156960e+04 1.026746e+00
1.156970e+04 1.024189e+00
1.156980e+04 1.021726e+00
1.156990e+04 1.019337e+00
1.157000e+04 1.016999e+00
1.157010e+04 1.014692e+00
1.157020e+04 1.012399e+00
1.157030e+04 1.010103e+00
1.157040e+04 1.007792e+00
1.157050e+04 1.005454e+00
1.157060e+04 1.003083e+00
1.157070e+04 1.000675e+00
1.157080e+04 9.982283e-01
1.157090e+04 9.957467e-01
1.157100e+04 9.932360e-01
1.157110e+04 9.907053e-01
1.157120e+04 9.881665e-01
1.157130e+04 9.856340e-01
1.157140e+04 9.831240e-01
1.157150e+04 9.806545e-01
1.157160e+04 9.782447e-01
1.157170e+04 9.759144e-01
1.157180e+04 9.736837e-01
1.157190e+04 9.715726e-01
1.157200e+04 9.696006e-01
1.157210e+04 9.677865e-01
1.157220e+04 9.661478e-01
1.157230e+04 9.647007e-01
1.157240e+04 9.634596e-01
1.157250e+04 9.624375e-01
1.157260e+04 9.616452e-01
1.157270e+04 9.610914e-01
1.157280e+04 9.607831e-01
1.157290e+04 9.607247e-01
1.157300e+04 9.609188e-01
1.157310e+04 9.613657e-01
1.157320e+04 9.620634e-01
1.157330e+04 9.630082e-01
1.157340e+04 9.641940e-01
1.157350e+04 9.656130e-01
1.157360e+04 9.672552e-01
1.157370e+04 9.691093e-01
1.157380e+04 9.711619e-01
1.157390e+04 9.733985e-01
1.157400e+04 9.758032e-01
1.157410e+04 9.783589e-01
1.157420e+04 9.810475e-01
1.157430e+04 9.838505e-01
1.157440e+04 9.867485e-01
1.157450e+04 9.897220e-01
1.157460e+04 9.927512e-01
1.157470e+04 9.958167e-01
1.157480e+04 9.988990e-01
1.157490e+04 1.001979e+00
1.157500e+04 1.005039e+00
1.157510e+04 1.008061e+00
1.157520e+04 1.011029e+00
1.157530e+04 1.013926e+00
1.157540e+04 1.016737e+00
1.157550e+04 1.019450e+00
1.157560e+04 1.022050e+00
1.157570e+04 1.024526e+00
1.157580e+04 1.026867e+00
1.157590e+04 1.029063e+00
1.157600e+04 1.031106e+00
1.157610e+04 1.032987e+00
1.157620e+04 1.034699e+00
1.157630e+04 1.036235e+00
1.157640e+04 1.037590e+00
1.157650e+04 1.038759e+00
1.157660e+04 1.039737e+00
1.157670e+04 1.040521e+00
1.157680e+04 1.041106e+00
1.157690e+04 1.041489e+00
1.157700e+04 1.041669e+00
1.157710e+04 1.041643e+00
1.157720e+04 1.041409e+00
1.157730e+04 1.040967e+00
1.157740e+04 1.040314e+00
1.157750e+04 1.039450e+00
1.157760e+04 1.038377e+00
1.157770e+04 1.037093e+00
1.157780e+04 1.035602e+00
1.157790e+04 1.033904e+00
1.157800e+04 1.032002e+00
1.157810e+04 1.029901e+00
1.157820e+04 1.027604e+00
1.157830e+04 1.025118e+00
1.157840e+04 1.022449e+00
1.157850e+04 1.019605e+00
1.157860e+04 1.016593e+00
1.157870e+04 1.013425e+00
1.157880e+04 1.010109e+00
1.157890e+04 1.006658e+00
1.157900e+04 1.003083e+00
1.157910e+04 9.993975e-01
1.157920e+04 9.956145e-01
1.157930e+04 9.917480e-01
1.157940e+04 9.878120e-01
1.157950e+04 9.838213e-01
1.157960e+04 9.797906e-01
1.157970e+04 9.757347e-01
1.157980e+04 9.716686e-01
1.157990e+04 9.676071e-01
1.158000e+04 9.635649e-01
1.158010e+04 9.595563e-01
1.158020e+04 9.555956e-01
1.158030e+04 9.516963e-01
1.158040e+04 9.478714e-01
1.158050e+04 9.441334e-01
1.158060e+04 9.404939e-01
1.158070e+04 9.369635e-01
1.158080e+04 9.335521e-01
1.158090e+04 9.302683e-01
1.158100e+04 9.271198e-01
1.158110e+04 9.241127e-01
1.158120e+04 9.212522e-01
1.158130e+04 9.185422e-01
1.158140e+04 9.159851e-01
1.158150e+04 9.135822e-01
1.158160e+04 9.113336e-01
1.158170e+04 9.092381e-01
1.158180e+04 9.072935e-01
1.158190e+04 9.054965e-01
1.158200e+04 9.038428e-01
1.158210e+04 9.023276e-01
1.158220e+04 9.009450e-01
1.158230e+04 8.996889e-01
1.158240e+04 8.985526e-01
1.158250e+04 8.975292e-01
1.158260e+04 8.966117e-01
1.158270e+04 8.957931e-01
1.158280e+04 8.950665e-01
1.158290e+04 8.944253e-01
1.158300e+04 8.938635e-01
1.158310e+04 8.933752e-01
1.158320e+04 8.929556e-01
1.158330e+04 8.926001e-01
1.158340e+04 8.923050e-01
1.158350e+04 8.920676e-01
1.158360e+04 8.918856e-01
1.158370e+04 8.917578e-01
1.158380e+04 8.916835e-01
1.158390e+04 8.916630e-01
1.158400e+04 8.916969e-01
1.158410e+04 8.917869e-01
1.158420e+04 8.919348e-01
1.158430e+04 8.921429e-01
1.158440e+04 8.924141e-01
1.158450e+04 8.927514e-01
1.158460e+04 8.931577e-01
1.158470e+04 8.936363e-01
1.158480e+04 8.941904e-01
1.158490e+04 8.948229e-01
1.158500e+04 8.955365e-01
1.158510e+04 8.963338e-01
1.158520e+04 8.972171e-01
1.158530e+04 8.981882e-01
1.158540e+04 8.992484e-01
1.158550e+04 9.003990e-01
1.158560e+04 9.016407e-01
1.158570e+04 9.029738e-01
1.158580e+04 9.043982e-01
1.158590e+04 9.059137e-01
1.158600e+04 9.075197e-01
1.158610e+04 9.092155e-01
1.158620e+04 9.110000e-01
1.158630e+04 9.128724e-01
1.158640e+04 9.148314e-01
1.158650e+04 9.168759e-01
1.158660e+04 9.190050e-01
1.158670e+04 9.212175e-01
1.158680e+04 9.235125e-01
1.158690e+04 9.258891e-01
1.158700e+04 9.283464e-01
1.158710e+04 9.308839e-01
1.158720e+04 9.335007e-01
1.158730e+04 9.361962e-01
1.158740e+04 9.389696e-01
1.158750e+04 9.418201e-01
1.158760e+04 9.447467e-01
1.158770e+04 9.477481e-01
1.158780e+04 9.508230e-01
1.158790e+04 9.539695e-01
1.158800e+04 9.571853e-01
1.158810e+04 9.604677e-01
1.158820e+04 9.638136e-01
1.158830e+04 9.672191e-01
1.158840e+04 9.706798e-01
1.158850e+04 9.741907e-01
1.158860e+04 9.777460e-01
1.158870e+04 9.813392e-01
1.158880e+04 9.849633e-01
1.158890e+04 9.886103e-01
1.158900e+04 9.922718e-01
1.158910e+04 9.959385e-01
1.158920e+04 9.996008e-01
1.158930e+04 1.003248e+00
1.158940e+04 1.006870e+00
1.158950e+04 1.010454e+00
1.158960e+04 1.013990e+00
1.158970e+04 1.017466e+00
1.158980e+04 1.020869e+00
1.158990e+04 1.024187e+00
1.159000e+04 1.027409e+00
1.159010e+04 1.030523e+00
1.159020e+04 1.033517e+00
1.159030e+04 1.036381e+00
1.159040e+04 1.039104e+00
1.159050e+04 1.041676e+00
1.159060e+04 1.044089e+00
1.159070e+04 1.046334e+00
1.159080e+04 1.048405e+00
1.159090e+04 1.050295e+00
1.159100e+04 1.052000e+00
1.159110e+04 1.053516e+00
1.159120e+04 1.054841e+00
1.159130e+04 1.055973e+00
1.159140e+04 1.056912e+00
1.159150e+04 1.057659e+00
1.159160e+04 1.058218e+00
1.159170e+04 1.058590e+00
1.159180e+04 1.058781e+00
1.159190e+04 1.058796e+00
1.159200e+04 1.058642e+00
1.159210e+04 1.058325e+00
1.159220e+04 1.057854e+00
1.159230e+04 1.057237e+00
1.159240e+04 1.056482e+00
1.159250e+04 1.055600e+00
1.159260e+04 1.054599e+00
1.159270e+04 1.053490e+00
1.159280e+04 1.052283e+00
1.159290e+04 1.050986e+00
1.159300e+04 1.049611e+00
1.159310e+04 1.048166e+00
1.159320e+04 1.046661e+00
1.159330e+04 1.045105e+00
1.159340e+04 1.043506e+00
1.159350e+04 1.041872e+00
1.159360e+04 1.040212e+00
1.159370e+04 1.038532e+00
1.159380e+04 1.036838e+00
1.159390e+04 1.035138e+00
1.159400e+04 1.033437e+00
1.159450e+04 1.025081e+00
1.159500e+04 1.017300e+00
1.159550e+04 1.010382e+00
1.159600e+04 1.004505e+00
1.159650e+04 9.997857e-01
1.159700e+04 9.962823e-01
1.159750e+04 9.939629e-01
1.159800e+04 9.926679e-01
1.159850e+04 9.921005e-01
1.159900e+04 9.918603e-01
1.159950e+04 9.915116e-01
1.160000e+04 9.906683e-01
1.160050e+04 9.890708e-01
1.160100e+04 9.866323e-01
1.160150e+04 9.834457e-01
1.160200e+04 9.797529e-01
1.160250e+04 9.758907e-01
1.160300e+04 9.722290e-01
1.160350e+04 9.691165e-01
1.160400e+04 9.668403e-01
1.160450e+04 9.656043e-01
1.160500e+04 9.655223e-01
1.160550e+04 9.666245e-01
1.160600e+04 9.688722e-01
1.160650e+04 9.721779e-01
1.160700e+04 9.764267e-01
1.160750e+04 9.814944e-01
1.160800e+04 9.872607e-01
1.160850e+04 9.936146e-01
1.160900e+04 1.000455e+00
1.160950e+04 1.007688e+00
1.161000e+04 1.015223e+00
1.161050e+04 1.022970e+00
1.161100e+04 1.030837e+00
1.161150e+04 1.038726e+00
1.161200e+04 1.046531e+00
1.161250e+04 1.054133e+00
1.161300e+04 1.061394e+00
1.161350e+04 1.068163e+00
1.161400e+04 1.074281e+00
1.161450e+04 1.079589e+00
1.161500e+04 1.083952e+00
1.161550e+04 1.087278e+00
1.161600e+04 1.089529e+00
1.161650e+04 1.090738e+00
1.161700e+04 1.091004e+00
1.161750e+04 1.090476e+00
1.161800e+04 1.089338e+00
1.161850e+04 1.087779e+00
1.161900e+04 1.085971e+00
1.161950e+04 1.084054e+00
1.162000e+04 1.082124e+00
1.162050e+04 1.080239e+00
1.162100e+04 1.078420e+00
1.162150e+04 1.076667e+00
1.162200e+04 1.074969e+00
