# energy(eV) normalized_intensity
1.141400e+04 6.433259e-04
1.141450e+04 6.253575e-04
1.141500e+04 6.075385e-04
1.141550e+04 5.898701e-04
1.141600e+04 5.723540e-04
1.141650e+04 5.549923e-04
1.141700e+04 5.377860e-04
1.141750e+04 5.207369e-04
1.141800e+04 5.038468e-04
1.141850e+04 4.871176e-04
1.141900e+04 4.705505e-04
1.141950e+04 4.541475e-04
1.142000e+04 4.379106e-04
1.142050e+04 4.218413e-04
1.142100e+04 4.059412e-04
1.142150e+04 3.902128e-04
1.142200e+04 3.746576e-04
1.142250e+04 3.592771e-04
1.142300e+04 3.440740e-04
1.142350e+04 3.290499e-04
1.142400e+04 3.142066e-04
1.142450e+04 2.995463e-04
1.142500e+04 2.850711e-04
1.142550e+04 2.707831e-04
1.142600e+04 2.566841e-04
1.142650e+04 2.427765e-04
1.142700e+04 2.290624e-04
1.142750e+04 2.155439e-04
1.142800e+04 2.022235e-04
1.142850e+04 1.891034e-04
1.142900e+04 1.761856e-04
1.142950e+04 1.634727e-04
1.143000e+04 1.509673e-04
1.143050e+04 1.386711e-04
1.143100e+04 1.265873e-04
1.143150e+04 1.147179e-04
1.143200e+04 1.030658e-04
1.143250e+04 9.163324e-05
1.143300e+04 8.042312e-05
1.143350e+04 6.943774e-05
1.143400e+04 5.868026e-05
1.143450e+04 4.815269e-05
1.143500e+04 3.785848e-05
1.143550e+04 2.780021e-05
1.143600e+04 1.798077e-05
1.143650e+04 8.403022e-06
1.143700e+04 -9.298698e-07
1.143750e+04 -1.001532e-05
1.143800e+04 -1.884988e-05
1.143850e+04 -2.743067e-05
1.143900e+04 -3.575425e-05
1.143950e+04 -4.381775e-05
1.144000e+04 -5.161771e-05
1.144050e+04 -5.915097e-05
1.144100e+04 -6.641380e-05
1.144150e+04 -7.340303e-05
1.144200e+04 -8.011522e-05
1.144250e+04 -8.654692e-05
1.144300e+04 -9.269411e-05
1.144350e+04 -9.855333e-05
1.144400e+04 -1.041209e-04
1.144450e+04 -1.093929e-04
1.144500e+04 -1.143656e-04
1.144550e+04 -1.190347e-04
1.144600e+04 -1.233969e-04
1.144650e+04 -1.274473e-04
1.144700e+04 -1.311825e-04
1.144750e+04 -1.345978e-04
1.144800e+04 -1.376891e-04
1.144850e+04 -1.404518e-04
1.144900e+04 -1.428819e-04
1.144950e+04 -1.449743e-04
1.145000e+04 -1.467245e-04
1.145050e+04 -1.481283e-04
1.145100e+04 -1.491804e-04
1.145150e+04 -1.498761e-04
1.145200e+04 -1.502103e-04
1.145250e+04 -1.501781e-04
1.145300e+04 -1.497746e-04
1.145350e+04 -1.489937e-04
1.145400e+04 -1.478309e-04
1.145450e+04 -1.462807e-04
1.145500e+04 -1.443368e-04
1.145550e+04 -1.419942e-04
1.145600e+04 -1.392471e-04
1.145650e+04 -1.360895e-04
1.145700e+04 -1.325153e-04
1.145750e+04 -1.285185e-04
1.145800e+04 -1.240928e-04
1.145850e+04 -1.192319e-04
1.145900e+04 -1.139290e-04
1.145950e+04 -1.081780e-04
1.146000e+04 -1.019722e-04
1.146050e+04 -9.530420e-05
1.146100e+04 -8.816721e-05
1.146150e+04 -8.055402e-05
1.146200e+04 -7.245745e-05
1.146250e+04 -6.387002e-05
1.146300e+04 -5.478427e-05
1.146350e+04 -4.519214e-05
1.146400e+04 -3.508588e-05
1.146450e+04 -2.445715e-05
1.146500e+04 -1.329791e-05
1.146550e+04 -1.599823e-06
1.146600e+04 1.064602e-05
1.146650e+04 2.344825e-05
1.146700e+04 3.681604e-05
1.146750e+04 5.075832e-05
1.146800e+04 6.528457e-05
1.146850e+04 8.040456e-05
1.146900e+04 9.612776e-05
1.146950e+04 1.124645e-04
1.147000e+04 1.294249e-04
1.147050e+04 1.470193e-04
1.147100e+04 1.652586e-04
1.147150e+04 1.841536e-04
1.147200e+04 2.037157e-04
1.147250e+04 2.239563e-04
1.147300e+04 2.448873e-04
1.147350e+04 2.665200e-04
1.147400e+04 2.888674e-04
1.147450e+04 3.119416e-04
1.147500e+04 3.357556e-04
1.147550e+04 3.603227e-04
1.147600e+04 3.856561e-04
1.147650e+04 4.117697e-04
1.147700e+04 4.386776e-04
1.147750e+04 4.663943e-04
1.147800e+04 4.949348e-04
1.147850e+04 5.243137e-04
1.147900e+04 5.545472e-04
1.147950e+04 5.856510e-04
1.148000e+04 6.176410e-04
1.148050e+04 6.505346e-04
1.148100e+04 6.843486e-04
1.148150e+04 7.191007e-04
1.148200e+04 7.548089e-04
1.148250e+04 7.914917e-04
1.148300e+04 8.291682e-04
1.148350e+04 8.678577e-04
1.148400e+04 9.075804e-04
1.148450e+04 9.483566e-04
1.148500e+04 9.902076e-04
1.148550e+04 1.033155e-03
1.148600e+04 1.077221e-03
1.148650e+04 1.122428e-03
1.148700e+04 1.168800e-03
1.148750e+04 1.216361e-03
1.148800e+04 1.265136e-03
1.148850e+04 1.315150e-03
1.148900e+04 1.366429e-03
1.148950e+04 1.419000e-03
1.149000e+04 1.472891e-03
1.149050e+04 1.528130e-03
1.149100e+04 1.584747e-03
1.149150e+04 1.642772e-03
1.149200e+04 1.702235e-03
1.149250e+04 1.763169e-03
1.149300e+04 1.825606e-03
1.149350e+04 1.889581e-03
1.149400e+04 1.955127e-03
1.149450e+04 2.022282e-03
1.149500e+04 2.091082e-03
1.149550e+04 2.161566e-03
1.149600e+04 2.233771e-03
1.149650e+04 2.307741e-03
1.149700e+04 2.383515e-03
1.149750e+04 2.461138e-03
1.149800e+04 2.540653e-03
1.149850e+04 2.622108e-03
1.149900e+04 2.705549e-03
1.149950e+04 2.791025e-03
1.150000e+04 2.878588e-03
1.150050e+04 2.968289e-03
1.150100e+04 3.060183e-03
1.150150e+04 3.154325e-03
1.150200e+04 3.250775e-03
1.150250e+04 3.349590e-03
1.150300e+04 3.450834e-03
1.150350e+04 3.554571e-03
1.150400e+04 3.660866e-03
1.150450e+04 3.769790e-03
1.150500e+04 3.881412e-03
1.150550e+04 3.995808e-03
1.150600e+04 4.113052e-03
1.150650e+04 4.233226e-03
1.150700e+04 4.356410e-03
1.150750e+04 4.482691e-03
1.150800e+04 4.612158e-03
1.150850e+04 4.744901e-03
1.150900e+04 4.881017e-03
1.150950e+04 5.020606e-03
1.151000e+04 5.163771e-03
1.151050e+04 5.310618e-03
1.151100e+04 5.461259e-03
1.151150e+04 5.615812e-03
1.151200e+04 5.774397e-03
1.151250e+04 5.937139e-03
1.151300e+04 6.104171e-03
1.151350e+04 6.275629e-03
1.151400e+04 6.451656e-03
1.151450e+04 6.632400e-03
1.151500e+04 6.818017e-03
1.151550e+04 7.008670e-03
1.151600e+04 7.204527e-03
1.151650e+04 7.405766e-03
1.151700e+04 7.612572e-03
1.151750e+04 7.825138e-03
1.151800e+04 8.043667e-03
1.151850e+04 8.268372e-03
1.151900e+04 8.499474e-03
1.151950e+04 8.737207e-03
1.152000e+04 8.981815e-03
1.152050e+04 9.233554e-03
1.152100e+04 9.492694e-03
1.152150e+04 9.759518e-03
1.152200e+04 1.003432e-02
1.152250e+04 1.031742e-02
1.152300e+04 1.060914e-02
1.152350e+04 1.090983e-02
1.152400e+04 1.121986e-02
1.152450e+04 1.153960e-02
1.152500e+04 1.186947e-02
1.152550e+04 1.220989e-02
1.152600e+04 1.256133e-02
1.152650e+04 1.292425e-02
1.152700e+04 1.329917e-02
1.152750e+04 1.368662e-02
1.152800e+04 1.408718e-02
1.152850e+04 1.450144e-02
1.152900e+04 1.493005e-02
1.152950e+04 1.537369e-02
1.153000e+04 1.583309e-02
1.153050e+04 1.630902e-02
1.153100e+04 1.680229e-02
1.153150e+04 1.731380e-02
1.153200e+04 1.784447e-02
1.153250e+04 1.839531e-02
1.153300e+04 1.896739e-02
1.153350e+04 1.956185e-02
1.153400e+04 2.017993e-02
1.153450e+04 2.082295e-02
1.153500e+04 2.149232e-02
1.153550e+04 2.218957e-02
1.153600e+04 2.291635e-02
1.153650e+04 2.367444e-02
1.153700e+04 2.446575e-02
1.153750e+04 2.529237e-02
1.153800e+04 2.615653e-02
1.153850e+04 2.706068e-02
1.153900e+04 2.800748e-02
1.153950e+04 2.899981e-02
1.154000e+04 3.004082e-02
1.154050e+04 3.113395e-02
1.154100e+04 3.228297e-02
1.154150e+04 3.349201e-02
1.154200e+04 3.476560e-02
1.154250e+04 3.610875e-02
1.154300e+04 3.752697e-02
1.154350e+04 3.902634e-02
1.154400e+04 4.061364e-02
1.154450e+04 4.229636e-02
1.154500e+04 4.408287e-02
1.154550e+04 4.598252e-02
1.154600e+04 4.800577e-02
1.154650e+04 5.016439e-02
1.154700e+04 5.247162e-02
1.154750e+04 5.494244e-02
1.154800e+04 5.759386e-02
1.154850e+04 6.044522e-02
1.154900e+04 6.351865e-02
1.154950e+04 6.683951e-02
1.155000e+04 7.043704e-02
1.155050e+04 7.434509e-02
1.155100e+04 7.860299e-02
1.155150e+04 8.325672e-02
1.155200e+04 8.836028e-02
1.155250e+04 9.397745e-02
1.155300e+04 1.001840e-01
1.155350e+04 1.070705e-01
1.155400e+04 1.147460e-01
1.155410e+04 1.163869e-01
1.155420e+04 1.180658e-01
1.155430e+04 1.197838e-01
1.155440e+04 1.215422e-01
1.155450e+04 1.233425e-01
1.155460e+04 1.251859e-01
1.155470e+04 1.270739e-01
1.155480e+04 1.290080e-01
1.155490e+04 1.309899e-01
1.155500e+04 1.330211e-01
1.155510e+04 1.351033e-01
1.155520e+04 1.372384e-01
1.155530e+04 1.394283e-01
1.155540e+04 1.416748e-01
1.155550e+04 1.439800e-01
1.155560e+04 1.463461e-01
1.155570e+04 1.487752e-01
1.155580e+04 1.512697e-01
1.155590e+04 1.538321e-01
1.155600e+04 1.564648e-01
1.155610e+04 1.591706e-01
1.155620e+04 1.619523e-01
1.155630e+04 1.648127e-01
1.155640e+04 1.677550e-01
1.155650e+04 1.707824e-01
1.155660e+04 1.738982e-01
1.155670e+04 1.771060e-01
1.155680e+04 1.804095e-01
1.155690e+04 1.838126e-01
1.155700e+04 1.873193e-01
1.155710e+04 1.909341e-01
1.155720e+04 1.946613e-01
1.155730e+04 1.985057e-01
1.155740e+04 2.024724e-01
1.155750e+04 2.065666e-01
1.155760e+04 2.107937e-01
1.155770e+04 2.151595e-01
1.155780e+04 2.196703e-01
1.155790e+04 2.243323e-01
1.155800e+04 2.291524e-01
1.155810e+04 2.341376e-01
1.155820e+04 2.392955e-01
1.155830e+04 2.446339e-01
1.155840e+04 2.501611e-01
1.155850e+04 2.558859e-01
1.155860e+04 2.618174e-01
1.155870e+04 2.679655e-01
1.155880e+04 2.743402e-01
1.155890e+04 2.809523e-01
1.155900e+04 2.878132e-01
1.155910e+04 2.949347e-01
1.155920e+04 3.023293e-01
1.155930e+04 3.100103e-01
1.155940e+04 3.179913e-01
1.155950e+04 3.262870e-01
1.155960e+04 3.349125e-01
1.155970e+04 3.438838e-01
1.155980e+04 3.532175e-01
1.155990e+04 3.629311e-01
1.156000e+04 3.730427e-01
1.156010e+04 3.835713e-01
1.156020e+04 3.945366e-01
1.156030e+04 4.059588e-01
1.156040e+04 4.178590e-01
1.156050e+04 4.302588e-01
1.156060e+04 4.431803e-01
1.156070e+04 4.566461e-01
1.156080e+04 4.706790e-01
1.156090e+04 4.853018e-01
1.156100e+04 5.005374e-01
1.156110e+04 5.164080e-01
1.156120e+04 5.329355e-01
1.156130e+04 5.501404e-01
1.156140e+04 5.680417e-01
1.156150e+04 5.866565e-01
1.156160e+04 6.059992e-01
1.156170e+04 6.260807e-01
1.156180e+04 6.469080e-01
1.156190e+04 6.684828e-01
1.156200e+04 6.908012e-01
1.156210e+04 7.138519e-01
1.156220e+04 7.376158e-01
1.156230e+04 7.620642e-01
1.156240e+04 7.871585e-01
1.156250e+04 8.128482e-01
1.156260e+04 8.390703e-01
1.156270e+04 8.657486e-01
1.156280e+04 8.927927e-01
1.156290e+04 9.200982e-01
1.156300e+04 9.475462e-01
1.156310e+04 9.750045e-01
1.156320e+04 1.002328e+00
1.156330e+04 1.029362e+00
1.156340e+04 1.055943e+00
1.156350e+04 1.081901e+00
1.156360e+04 1.107066e+00
1.156370e+04 1.131269e+00
1.156380e+04 1.154349e+00
1.156390e+04 1.176153e+00
1.156400e+04 1.196545e+00
1.156410e+04 1.215396e+00
1.156420e+04 1.232600e+00
1.156430e+04 1.248079e+00
1.156440e+04 1.261782e+00
1.156450e+04 1.273684e+00
1.156460e+04 1.283781e+00
1.156470e+04 1.292097e+00
1.156480e+04 1.298673e+00
1.156490e+04 1.303569e+00
1.156500e+04 1.306862e+00
1.156510e+04 1.308638e+00
1.156520e+04 1.308994e+00
1.156530e+04 1.308031e+00
1.156540e+04 1.305857e+00
1.156550e+04 1.302578e+00
1.156560e+04 1.298301e+00
1.156570e+04 1.293130e+00
1.156580e+04 1.287168e+00
1.156590e+04 1.280511e+00
1.156600e+04 1.273254e+00
1.156610e+04 1.265486e+00
1.156620e+04 1.257290e+00
1.156630e+04 1.248745e+00
1.156640e+04 1.239925e+00
1.156650e+04 1.230899e+00
1.156660e+04 1.221731e+00
1.156670e+04 1.212481e+00
1.156680e+04 1.203203e+00
1.156690e+04 1.193948e+00
1.156700e+04 1.184761e+00
1.156710e+04 1.175683e+00
1.156720e+04 1.166753e+00
1.156730e+04 1.158002e+00
1.156740e+04 1.149461e+00
1.156750e+04 1.141156e+00
1.156760e+04 1.133107e+00
1.156770e+04 1.125333e+00
1.156780e+04 1.117850e+00
1.156790e+04 1.110668e+00
1.156800e+04 1.103798e+00
1.156810e+04 1.097243e+00
1.156820e+04 1.091008e+00
1.156830e+04 1.085093e+00
1.156840e+04 1.079494e+00
1.156850e+04 1.074208e+00
1.156860e+04 1.069226e+00
1.156870e+04 1.064540e+00
1.156880e+04 1.060139e+00
1.156890e+04 1.056007e+00
1.156900e+04 1.052131e+00
1.156910e+04 1.048493e+00
1.156920e+04 1.045074e+00
1.156930e+04 1.041856e+00
1.156940e+04 1.038817e+00
1.156950e+04 1.035936e+00
1.156960e+04 1.033192e+00
1.156970e+04 1.030562e+00
1.156980e+04 1.028024e+00
1.156990e+04 1.025559e+00
1.157000e+04 1.023147e+00
1.157010e+04 1.020769e+00
1.157020e+04 1.018409e+00
1.157030e+04 1.016054e+00
1.157040e+04 1.013693e+00
1.157050e+04 1.011317e+00
1.157060e+04 1.008920e+00
1.157070e+04 1.006501e+00
1.157080e+04 1.004060e+00
1.157090e+04 1.001602e+00
1.157100e+04 9.991320e-01
1.157110e+04 9.966605e-01
1.157120e+04 9.941990e-01
1.157130e+04 9.917613e-01
1.157140e+04 9.893627e-01
1.157150e+04 9.870198e-01
1.157160e+04 9.847497e-01
1.157170e+04 9.825705e-01
1.157180e+04 9.804996e-01
1.157190e+04 9.785545e-01
1.157200e+04 9.767520e-01
1.157210e+04 9.751076e-01
1.157220e+04 9.736359e-01
1.157230e+04 9.723499e-01
1.157240e+04 9.712608e-01
1.157250e+04 9.703783e-01
1.157260e+04 9.697101e-01
1.157270e+04 9.692620e-01
1.157280e+04 9.690376e-01
1.157290e+04 9.690388e-01
1.157300e+04 9.692653e-01
1.157310e+04 9.697148e-01
1.157320e+04 9.703832e-01
1.157330e+04 9.712644e-01
1.157340e+04 9.723507e-01
1.157350e+04 9.736325e-01
1.157360e+04 9.750989e-01
1.157370e+04 9.767375e-01
1.157380e+04 9.785344e-01
1.157390e+04 9.804749e-01
1.157400e+04 9.825432e-01
1.157410e+04 9.847229e-01
1.157420e+04 9.869969e-01
1.157430e+04 9.893476e-01
1.157440e+04 9.917574e-01
1.157450e+04 9.942086e-01
1.157460e+04 9.966836e-01
1.157470e+04 9.991651e-01
1.157480e+04 1.001636e+00
1.157490e+04 1.004081e+00
1.157500e+04 1.006483e+00
1.157510e+04 1.008827e+00
1.157520e+04 1.011101e+00
1.157530e+04 1.013290e+00
1.157540e+04 1.015382e+00
1.157550e+04 1.017366e+00
1.157560e+04 1.019232e+00
1.157570e+04 1.020969e+00
1.157580e+04 1.022570e+00
1.157590e+04 1.024027e+00
1.157600e+04 1.025332e+00
1.157610e+04 1.026481e+00
1.157620e+04 1.027467e+00
1.157630e+04 1.028287e+00
1.157640e+04 1.028937e+00
1.157650e+04 1.029413e+00
1.157660e+04 1.029714e+00
1.157670e+04 1.029838e+00
1.157680e+04 1.029784e+00
1.157690e+04 1.029552e+00
1.157700e+04 1.029141e+00
1.157710e+04 1.028552e+00
1.157720e+04 1.027788e+00
1.157730e+04 1.026850e+00
1.157740e+04 1.025741e+00
1.157750e+04 1.024464e+00
1.157760e+04 1.023024e+00
1.157770e+04 1.021425e+00
1.157780e+04 1.019672e+00
1.157790e+04 1.017772e+00
1.157800e+04 1.015731e+00
1.157810e+04 1.013557e+00
1.157820e+04 1.011257e+00
1.157830e+04 1.008841e+00
1.157840e+04 1.006318e+00
1.157850e+04 1.003697e+00
1.157860e+04 1.000988e+00
1.157870e+04 9.982012e-01
1.157880e+04 9.953483e-01
1.157890e+04 9.924397e-01
1.157900e+04 9.894865e-01
1.157910e+04 9.864996e-01
1.157920e+04 9.834903e-01
1.157930e+04 9.804693e-01
1.157940e+04 9.774473e-01
1.157950e+04 9.744348e-01
1.157960e+04 9.714418e-01
1.157970e+04 9.684779e-01
1.157980e+04 9.655522e-01
1.157990e+04 9.626735e-01
1.158000e+04 9.598495e-01
1.158010e+04 9.570878e-01
1.158020e+04 9.543951e-01
1.158030e+04 9.517773e-01
1.158040e+04 9.492398e-01
1.158050e+04 9.467872e-01
1.158060e+04 9.444234e-01
1.158070e+04 9.421515e-01
1.158080e+04 9.399741e-01
1.158090e+04 9.378930e-01
1.158100e+04 9.359095e-01
1.158110e+04 9.340242e-01
1.158120e+04 9.322373e-01
1.158130e+04 9.305484e-01
1.158140e+04 9.289566e-01
1.158150e+04 9.274609e-01
1.158160e+04 9.260597e-01
1.158170e+04 9.247513e-01
1.158180e+04 9.235336e-01
1.158190e+04 9.224045e-01
1.158200e+04 9.213617e-01
1.158210e+04 9.204030e-01
1.158220e+04 9.195258e-01
1.158230e+04 9.187277e-01
1.158240e+04 9.180065e-01
1.158250e+04 9.173597e-01
1.158260e+04 9.167851e-01
1.158270e+04 9.162805e-01
1.158280e+04 9.158439e-01
1.158290e+04 9.154732e-01
1.158300e+04 9.151668e-01
1.158310e+04 9.149226e-01
1.158320e+04 9.147393e-01
1.158330e+04 9.146151e-01
1.158340e+04 9.145488e-01
1.158350e+04 9.145390e-01
1.158360e+04 9.145844e-01
1.158370e+04 9.146840e-01
1.158380e+04 9.148366e-01
1.158390e+04 9.150412e-01
1.158400e+04 9.152969e-01
1.158410e+04 9.156027e-01
1.158420e+04 9.159578e-01
1.158430e+04 9.163613e-01
1.158440e+04 9.168125e-01
1.158450e+04 9.173104e-01
1.158460e+04 9.178544e-01
1.158470e+04 9.184436e-01
1.158480e+04 9.190773e-01
1.158490e+04 9.197546e-01
1.158500e+04 9.204748e-01
1.158510e+04 9.212371e-01
1.158520e+04 9.220406e-01
1.158530e+04 9.228846e-01
1.158540e+04 9.237680e-01
1.158550e+04 9.246902e-01
1.158560e+04 9.256502e-01
1.158570e+04 9.266470e-01
1.158580e+04 9.276798e-01
1.158590e+04 9.287475e-01
1.158600e+04 9.298492e-01
1.158610e+04 9.309838e-01
1.158620e+04 9.321503e-01
1.158630e+04 9.333475e-01
1.158640e+04 9.345744e-01
1.158650e+04 9.358297e-01
1.158660e+04 9.371124e-01
1.158670e+04 9.384210e-01
1.158680e+04 9.397544e-01
1.158690e+04 9.411112e-01
1.158700e+04 9.424901e-01
1.158710e+04 9.438895e-01
1.158720e+04 9.453082e-01
1.158730e+04 9.467445e-01
1.158740e+04 9.481969e-01
1.158750e+04 9.496638e-01
1.158760e+04 9.511435e-01
1.158770e+04 9.526344e-01
1.158780e+04 9.541346e-01
1.158790e+04 9.556425e-01
1.158800e+04 9.571561e-01
1.158810e+04 9.586736e-01
1.158820e+04 9.601929e-01
1.158830e+04 9.617123e-01
1.158840e+04 9.632297e-01
1.158850e+04 9.647430e-01
1.158860e+04 9.662502e-01
1.158870e+04 9.677492e-01
1.158880e+04 9.692380e-01
1.158890e+04 9.707143e-01
1.158900e+04 9.721762e-01
1.158910e+04 9.736216e-01
1.158920e+04 9.750482e-01
1.158930e+04 9.764541e-01
1.158940e+04 9.778373e-01
1.158950e+04 9.791956e-01
1.158960e+04 9.805272e-01
1.158970e+04 9.818301e-01
1.158980e+04 9.831024e-01
1.158990e+04 9.843424e-01
1.159000e+04 9.855484e-01
1.159010e+04 9.867186e-01
1.159020e+04 9.878516e-01
1.159030e+04 9.889460e-01
1.159040e+04 9.900003e-01
1.159050e+04 9.910133e-01
1.159060e+04 9.919839e-01
1.159070e+04 9.929111e-01
1.159080e+04 9.937940e-01
1.159090e+04 9.946318e-01
1.159100e+04 9.954240e-01
1.159110e+04 9.961701e-01
1.159120e+04 9.968696e-01
1.159130e+04 9.975225e-01
1.159140e+04 9.981285e-01
1.159150e+04 9.986878e-01
1.159160e+04 9.992005e-01
1.159170e+04 9.996669e-01
1.159180e+04 1.000087e+00
1.159190e+04 1.000463e+00
1.159200e+04 1.000793e+00
1.159210e+04 1.001080e+00
1.159220e+04 1.001324e+00
1.159230e+04 1.001526e+00
1.159240e+04 1.001687e+00
1.159250e+04 1.001808e+00
1.159260e+04 1.001891e+00
1.159270e+04 1.001936e+00
1.159280e+04 1.001946e+00
1.159290e+04 1.001921e+00
1.159300e+04 1.001863e+00
1.159310e+04 1.001774e+00
1.159320e+04 1.001655e+00
1.159330e+04 1.001508e+00
1.159340e+04 1.001334e+00
1.159350e+04 1.001135e+00
1.159360e+04 1.000912e+00
1.159370e+04 1.000667e+00
1.159380e+04 1.000403e+00
1.159390e+04 1.000119e+00
1.159400e+04 9.998180e-01
1.159450e+04 9.981090e-01
1.159500e+04 9.961876e-01
1.159550e+04 9.942075e-01
1.159600e+04 9.922904e-01
1.159650e+04 9.905235e-01
1.159700e+04 9.889584e-01
1.159750e+04 9.876117e-01
1.159800e+04 9.864680e-01
1.159850e+04 9.854851e-01
1.159900e+04 9.846034e-01
1.159950e+04 9.837573e-01
1.160000e+04 9.828883e-01
1.160050e+04 9.819574e-01
1.160100e+04 9.809537e-01
1.160150e+04 9.798997e-01
1.160200e+04 9.788495e-01
1.160250e+04 9.778834e-01
1.160300e+04 9.770986e-01
1.160350e+04 9.765979e-01
1.160400e+04 9.764796e-01
1.160450e+04 9.768277e-01
1.160500e+04 9.777066e-01
1.160550e+04 9.791572e-01
1.160600e+04 9.811966e-01
1.160650e+04 9.838206e-01
1.160700e+04 9.870061e-01
1.160750e+04 9.907162e-01
1.160800e+04 9.949030e-01
1.160850e+04 9.995118e-01
1.160900e+04 1.004482e+00
1.160950e+04 1.009751e+00
1.161000e+04 1.015251e+00
1.161050e+04 1.020912e+00
1.161100e+04 1.026662e+00
1.161150e+04 1.032423e+00
1.161200e+04 1.038116e+00
1.161250e+04 1.043656e+00
1.161300e+04 1.048957e+00
1.161350e+04 1.053933e+00
1.161400e+04 1.058500e+00
1.161450e+04 1.062583e+00
1.161500e+04 1.066121e+00
1.161550e+04 1.069072e+00
1.161600e+04 1.071415e+00
1.161650e+04 1.073157e+00
1.161700e+04 1.074331e+00
1.161750e+04 1.074990e+00
1.161800e+04 1.075203e+00
1.161850e+04 1.075047e+00
1.161900e+04 1.074600e+00
1.161950e+04 1.073933e+00
1.162000e+04 1.073108e+00
1.162050e+04 1.072173e+00
1.162100e+04 1.071164e+00
1.162150e+04 1.070106e+00
1.162200e+04 1.069015e+00
