# energy(eV) normalized_intensity
1.141400e+04 6.397942e-04
1.141450e+04 6.219245e-04
1.141500e+04 6.042033e-04
1.141550e+04 5.866319e-04
1.141600e+04 5.692120e-04
1.141650e+04 5.519456e-04
1.141700e+04 5.348338e-04
1.141750e+04 5.178784e-04
1.141800e+04 5.010810e-04
1.141850e+04 4.844436e-04
1.141900e+04 4.679675e-04
1.141950e+04 4.516546e-04
1.142000e+04 4.355068e-04
1.142050e+04 4.195257e-04
1.142100e+04 4.037129e-04
1.142150e+04 3.880708e-04
1.142200e+04 3.726010e-04
1.142250e+04 3.573050e-04
1.142300e+04 3.421853e-04
1.142350e+04 3.272437e-04
1.142400e+04 3.124819e-04
1.142450e+04 2.979021e-04
1.142500e+04 2.835064e-04
1.142550e+04 2.692968e-04
1.142600e+04 2.552752e-04
1.142650e+04 2.414439e-04
1.142700e+04 2.278051e-04
1.142750e+04 2.143608e-04
1.142800e+04 2.011135e-04
1.142850e+04 1.880654e-04
1.142900e+04 1.752185e-04
1.142950e+04 1.625754e-04
1.143000e+04 1.501387e-04
1.143050e+04 1.379100e-04
1.143100e+04 1.258925e-04
1.143150e+04 1.140883e-04
1.143200e+04 1.025001e-04
1.143250e+04 9.113032e-05
1.143300e+04 7.998172e-05
1.143350e+04 6.905664e-05
1.143400e+04 5.835820e-05
1.143450e+04 4.788841e-05
1.143500e+04 3.765070e-05
1.143550e+04 2.764764e-05
1.143600e+04 1.788209e-05
1.143650e+04 8.356904e-06
1.143700e+04 -9.247665e-07
1.143750e+04 -9.960354e-06
1.143800e+04 -1.874643e-05
1.143850e+04 -2.728013e-05
1.143900e+04 -3.555803e-05
1.143950e+04 -4.357727e-05
1.144000e+04 -5.133443e-05
1.144050e+04 -5.882635e-05
1.144100e+04 -6.604932e-05
1.144150e+04 -7.300020e-05
1.144200e+04 -7.967556e-05
1.144250e+04 -8.607197e-05
1.144300e+04 -9.218542e-05
1.144350e+04 -9.801249e-05
1.144400e+04 -1.035495e-04
1.144450e+04 -1.087926e-04
1.144500e+04 -1.137380e-04
1.144550e+04 -1.183815e-04
1.144600e+04 -1.227198e-04
1.144650e+04 -1.267480e-04
1.144700e+04 -1.304626e-04
1.144750e+04 -1.338591e-04
1.144800e+04 -1.369336e-04
1.144850e+04 -1.396810e-04
1.144900e+04 -1.420978e-04
1.144950e+04 -1.441788e-04
1.145000e+04 -1.459193e-04
1.145050e+04 -1.473155e-04
1.145100e+04 -1.483618e-04
1.145150e+04 -1.490537e-04
1.145200e+04 -1.493861e-04
1.145250e+04 -1.493540e-04
1.145300e+04 -1.489527e-04
1.145350e+04 -1.481761e-04
1.145400e+04 -1.470197e-04
1.145450e+04 -1.454780e-04
1.145500e+04 -1.435448e-04
1.145550e+04 -1.412151e-04
1.145600e+04 -1.384830e-04
1.145650e+04 -1.353428e-04
1.145700e+04 -1.317882e-04
1.145750e+04 -1.278134e-04
1.145800e+04 -1.234119e-04
1.145850e+04 -1.185777e-04
1.145900e+04 -1.133039e-04
1.145950e+04 -1.075845e-04
1.146000e+04 -1.014127e-04
1.146050e+04 -9.478130e-05
1.146100e+04 -8.768347e-05
1.146150e+04 -8.011205e-05
1.146200e+04 -7.205990e-05
1.146250e+04 -6.351959e-05
1.146300e+04 -5.448369e-05
1.146350e+04 -4.494419e-05
1.146400e+04 -3.489338e-05
1.146450e+04 -2.432297e-05
1.146500e+04 -1.322495e-05
1.146550e+04 -1.591046e-06
1.146600e+04 1.058761e-05
1.146650e+04 2.331960e-05
1.146700e+04 3.661406e-05
1.146750e+04 5.047985e-05
1.146800e+04 6.492641e-05
1.146850e+04 7.996344e-05
1.146900e+04 9.560039e-05
1.146950e+04 1.118475e-04
1.147000e+04 1.287149e-04
1.147050e+04 1.462128e-04
1.147100e+04 1.643520e-04
1.147150e+04 1.831434e-04
1.147200e+04 2.025982e-04
1.147250e+04 2.227277e-04
1.147300e+04 2.435438e-04
1.147350e+04 2.650579e-04
1.147400e+04 2.872827e-04
1.147450e+04 3.102304e-04
1.147500e+04 3.339137e-04
1.147550e+04 3.583461e-04
1.147600e+04 3.835405e-04
1.147650e+04 4.095109e-04
1.147700e+04 4.362712e-04
1.147750e+04 4.638358e-04
1.147800e+04 4.922198e-04
1.147850e+04 5.214375e-04
1.147900e+04 5.515053e-04
1.147950e+04 5.824384e-04
1.148000e+04 6.142530e-04
1.148050e+04 6.469661e-04
1.148100e+04 6.805947e-04
1.148150e+04 7.151562e-04
1.148200e+04 7.506686e-04
1.148250e+04 7.871501e-04
1.148300e+04 8.246200e-04
1.148350e+04 8.630973e-04
1.148400e+04 9.026021e-04
1.148450e+04 9.431547e-04
1.148500e+04 9.847762e-04
1.148550e+04 1.027488e-03
1.148600e+04 1.071312e-03
1.148650e+04 1.116272e-03
1.148700e+04 1.162389e-03
1.148750e+04 1.209690e-03
1.148800e+04 1.258197e-03
1.148850e+04 1.307936e-03
1.148900e+04 1.358934e-03
1.148950e+04 1.411217e-03
1.149000e+04 1.464813e-03
1.149050e+04 1.519749e-03
1.149100e+04 1.576055e-03
1.149150e+04 1.633762e-03
1.149200e+04 1.692899e-03
1.149250e+04 1.753498e-03
1.149300e+04 1.815593e-03
1.149350e+04 1.879217e-03
1.149400e+04 1.944404e-03
1.149450e+04 2.011191e-03
1.149500e+04 2.079614e-03
1.149550e+04 2.149711e-03
1.149600e+04 2.221520e-03
1.149650e+04 2.295084e-03
1.149700e+04 2.370443e-03
1.149750e+04 2.447640e-03
1.149800e+04 2.526720e-03
1.149850e+04 2.607728e-03
1.149900e+04 2.690711e-03
1.149950e+04 2.775719e-03
1.150000e+04 2.862801e-03
1.150050e+04 2.952010e-03
1.150100e+04 3.043400e-03
1.150150e+04 3.137027e-03
1.150200e+04 3.232947e-03
1.150250e+04 3.331221e-03
1.150300e+04 3.431910e-03
1.150350e+04 3.535078e-03
1.150400e+04 3.640790e-03
1.150450e+04 3.749117e-03
1.150500e+04 3.860127e-03
1.150550e+04 3.973895e-03
1.150600e+04 4.090497e-03
1.150650e+04 4.210012e-03
1.150700e+04 4.332521e-03
1.150750e+04 4.458110e-03
1.150800e+04 4.586866e-03
1.150850e+04 4.718882e-03
1.150900e+04 4.854252e-03
1.150950e+04 4.993075e-03
1.151000e+04 5.135455e-03
1.151050e+04 5.281497e-03
1.151100e+04 5.431313e-03
1.151150e+04 5.585018e-03
1.151200e+04 5.742733e-03
1.151250e+04 5.904584e-03
1.151300e+04 6.070700e-03
1.151350e+04 6.241217e-03
1.151400e+04 6.416279e-03
1.151450e+04 6.596033e-03
1.151500e+04 6.780633e-03
1.151550e+04 6.970240e-03
1.151600e+04 7.165024e-03
1.151650e+04 7.365159e-03
1.151700e+04 7.570831e-03
1.151750e+04 7.782232e-03
1.151800e+04 7.999564e-03
1.151850e+04 8.223037e-03
1.151900e+04 8.452872e-03
1.151950e+04 8.689301e-03
1.152000e+04 8.932568e-03
1.152050e+04 9.182928e-03
1.152100e+04 9.440647e-03
1.152150e+04 9.706008e-03
1.152200e+04 9.979306e-03
1.152250e+04 1.026085e-02
1.152300e+04 1.055097e-02
1.152350e+04 1.085002e-02
1.152400e+04 1.115834e-02
1.152450e+04 1.147633e-02
1.152500e+04 1.180439e-02
1.152550e+04 1.214295e-02
1.152600e+04 1.249246e-02
1.152650e+04 1.285339e-02
1.152700e+04 1.322626e-02
1.152750e+04 1.361159e-02
1.152800e+04 1.400994e-02
1.152850e+04 1.442194e-02
1.152900e+04 1.484820e-02
1.152950e+04 1.528941e-02
1.153000e+04 1.574629e-02
1.153050e+04 1.621961e-02
1.153100e+04 1.671018e-02
1.153150e+04 1.721888e-02
1.153200e+04 1.774665e-02
1.153250e+04 1.829447e-02
1.153300e+04 1.886341e-02
1.153350e+04 1.945461e-02
1.153400e+04 2.006930e-02
1.153450e+04 2.070880e-02
1.153500e+04 2.137450e-02
1.153550e+04 2.206793e-02
1.153600e+04 2.279073e-02
1.153650e+04 2.354466e-02
1.153700e+04 2.433164e-02
1.153750e+04 2.515372e-02
1.153800e+04 2.601315e-02
1.153850e+04 2.691234e-02
1.153900e+04 2.785395e-02
1.153950e+04 2.884084e-02
1.154000e+04 2.987614e-02
1.154050e+04 3.096328e-02
1.154100e+04 3.210600e-02
1.154150e+04 3.330842e-02
1.154200e+04 3.457504e-02
1.154250e+04 3.591082e-02
1.154300e+04 3.732127e-02
1.154350e+04 3.881242e-02
1.154400e+04 4.039102e-02
1.154450e+04 4.206452e-02
1.154500e+04 4.384124e-02
1.154550e+04 4.573048e-02
1.154600e+04 4.774264e-02
1.154650e+04 4.988943e-02
1.154700e+04 5.218401e-02
1.154750e+04 5.464129e-02
1.154800e+04 5.727818e-02
1.154850e+04 6.011392e-02
1.154900e+04 6.317050e-02
1.154950e+04 6.647316e-02
1.155000e+04 7.005098e-02
1.155050e+04 7.393761e-02
1.155100e+04 7.817217e-02
1.155150e+04 8.280040e-02
1.155200e+04 8.787599e-02
1.155250e+04 9.346237e-02
1.155300e+04 9.963491e-02
1.155350e+04 1.064837e-01
1.155400e+04 1.141171e-01
1.155410e+04 1.157490e-01
1.155420e+04 1.174187e-01
1.155430e+04 1.191273e-01
1.155440e+04 1.208761e-01
1.155450e+04 1.226665e-01
1.155460e+04 1.244998e-01
1.155470e+04 1.263774e-01
1.155480e+04 1.283010e-01
1.155490e+04 1.302720e-01
1.155500e+04 1.322920e-01
1.155510e+04 1.343629e-01
1.155520e+04 1.364863e-01
1.155530e+04 1.386641e-01
1.155540e+04 1.408983e-01
1.155550e+04 1.431909e-01
1.155560e+04 1.455440e-01
1.155570e+04 1.479598e-01
1.155580e+04 1.504407e-01
1.155590e+04 1.529890e-01
1.155600e+04 1.556073e-01
1.155610e+04 1.582983e-01
1.155620e+04 1.610647e-01
1.155630e+04 1.639095e-01
1.155640e+04 1.668356e-01
1.155650e+04 1.698464e-01
1.155660e+04 1.729451e-01
1.155670e+04 1.761354e-01
1.155680e+04 1.794207e-01
1.155690e+04 1.828052e-01
1.155700e+04 1.862927e-01
1.155710e+04 1.898876e-01
1.155720e+04 1.935944e-01
1.155730e+04 1.974178e-01
1.155740e+04 2.013628e-01
1.155750e+04 2.054345e-01
1.155760e+04 2.096384e-01
1.155770e+04 2.139804e-01
1.155780e+04 2.184664e-01
1.155790e+04 2.231029e-01
1.155800e+04 2.278965e-01
1.155810e+04 2.328544e-01
1.155820e+04 2.379840e-01
1.155830e+04 2.432932e-01
1.155840e+04 2.487901e-01
1.155850e+04 2.544835e-01
1.155860e+04 2.603826e-01
1.155870e+04 2.664969e-01
1.155880e+04 2.728367e-01
1.155890e+04 2.794126e-01
1.155900e+04 2.862359e-01
1.155910e+04 2.933184e-01
1.155920e+04 3.006725e-01
1.155930e+04 3.083113e-01
1.155940e+04 3.162486e-01
1.155950e+04 3.244988e-01
1.155960e+04 3.330771e-01
1.155970e+04 3.419992e-01
1.155980e+04 3.512817e-01
1.155990e+04 3.609421e-01
1.156000e+04 3.709983e-01
1.156010e+04 3.814692e-01
1.156020e+04 3.923744e-01
1.156030e+04 4.037340e-01
1.156040e+04 4.155690e-01
1.156050e+04 4.279008e-01
1.156060e+04 4.407516e-01
1.156070e+04 4.541436e-01
1.156080e+04 4.680996e-01
1.156090e+04 4.826423e-01
1.156100e+04 4.977943e-01
1.156110e+04 5.135780e-01
1.156120e+04 5.300149e-01
1.156130e+04 5.471254e-01
1.156140e+04 5.649287e-01
1.156150e+04 5.834415e-01
1.156160e+04 6.026782e-01
1.156170e+04 6.226497e-01
1.156180e+04 6.433628e-01
1.156190e+04 6.648194e-01
1.156200e+04 6.870155e-01
1.156210e+04 7.099398e-01
1.156220e+04 7.335735e-01
1.156230e+04 7.578880e-01
1.156240e+04 7.828448e-01
1.156250e+04 8.083936e-01
1.156260e+04 8.344721e-01
1.156270e+04 8.610041e-01
1.156280e+04 8.879001e-01
1.156290e+04 9.150559e-01
1.156300e+04 9.423535e-01
1.156310e+04 9.696613e-01
1.156320e+04 9.968354e-01
1.156330e+04 1.023721e+00
1.156340e+04 1.050156e+00
1.156350e+04 1.075972e+00
1.156360e+04 1.100999e+00
1.156370e+04 1.125070e+00
1.156380e+04 1.148023e+00
1.156390e+04 1.169708e+00
1.156400e+04 1.189988e+00
1.156410e+04 1.208739e+00
1.156420e+04 1.225860e+00
1.156430e+04 1.241275e+00
1.156440e+04 1.254931e+00
1.156450e+04 1.266805e+00
1.156460e+04 1.276892e+00
1.156470e+04 1.285215e+00
1.156480e+04 1.291814e+00
1.156490e+04 1.296749e+00
1.156500e+04 1.300092e+00
1.156510e+04 1.301930e+00
1.156520e+04 1.302358e+00
1.156530e+04 1.301476e+00
1.156540e+04 1.299387e+00
1.156550e+04 1.296199e+00
1.156560e+04 1.292014e+00
1.156570e+04 1.286938e+00
1.156580e+04 1.281070e+00
1.156590e+04 1.274507e+00
1.156600e+04 1.267341e+00
1.156610e+04 1.259660e+00
1.156620e+04 1.251547e+00
1.156630e+04 1.243080e+00
1.156640e+04 1.234333e+00
1.156650e+04 1.225375e+00
1.156660e+04 1.216268e+00
1.156670e+04 1.207073e+00
1.156680e+04 1.197843e+00
1.156690e+04 1.188630e+00
1.156700e+04 1.179478e+00
1.156710e+04 1.170430e+00
1.156720e+04 1.161524e+00
1.156730e+04 1.152792e+00
1.156740e+04 1.144264e+00
1.156750e+04 1.135968e+00
1.156760e+04 1.127924e+00
1.156770e+04 1.120153e+00
1.156780e+04 1.112670e+00
1.156790e+04 1.105487e+00
1.156800e+04 1.098613e+00
1.156810e+04 1.092056e+00
1.156820e+04 1.085819e+00
1.156830e+04 1.079903e+00
1.156840e+04 1.074306e+00
1.156850e+04 1.069024e+00
1.156860e+04 1.064051e+00
1.156870e+04 1.059377e+00
1.156880e+04 1.054992e+00
1.156890e+04 1.050883e+00
1.156900e+04 1.047035e+00
1.156910e+04 1.043431e+00
1.156920e+04 1.040052e+00
1.156930e+04 1.036880e+00
1.156940e+04 1.033892e+00
1.156950e+04 1.031067e+00
1.156960e+04 1.028382e+00
1.156970e+04 1.025815e+00
1.156980e+04 1.023343e+00
1.156990e+04 1.020943e+00
1.157000e+04 1.018595e+00
1.157010e+04 1.016278e+00
1.157020e+04 1.013975e+00
1.157030e+04 1.011670e+00
1.157040e+04 1.009350e+00
1.157050e+04 1.007005e+00
1.157060e+04 1.004627e+00
1.157070e+04 1.002212e+00
1.157080e+04 9.997619e-01
1.157090e+04 9.972779e-01
1.157100e+04 9.947667e-01
1.157110e+04 9.922376e-01
1.157120e+04 9.897024e-01
1.157130e+04 9.871758e-01
1.157140e+04 9.846738e-01
1.157150e+04 9.822147e-01
1.157160e+04 9.798173e-01
1.157170e+04 9.775014e-01
1.157180e+04 9.752870e-01
1.157190e+04 9.731939e-01
1.157200e+04 9.712413e-01
1.157210e+04 9.694476e-01
1.157220e+04 9.678301e-01
1.157230e+04 9.664045e-01
1.157240e+04 9.651850e-01
1.157250e+04 9.641839e-01
1.157260e+04 9.634116e-01
1.157270e+04 9.628763e-01
1.157280e+04 9.625843e-01
1.157290e+04 9.625397e-01
1.157300e+04 9.627443e-01
1.157310e+04 9.631977e-01
1.157320e+04 9.638977e-01
1.157330e+04 9.648395e-01
1.157340e+04 9.660167e-01
1.157350e+04 9.674206e-01
1.157360e+04 9.690409e-01
1.157370e+04 9.708654e-01
1.157380e+04 9.728806e-01
1.157390e+04 9.750713e-01
1.157400e+04 9.774210e-01
1.157410e+04 9.799123e-01
1.157420e+04 9.825270e-01
1.157430e+04 9.852460e-01
1.157440e+04 9.880499e-01
1.157450e+04 9.909191e-01
1.157460e+04 9.938336e-01
1.157470e+04 9.967741e-01
1.157480e+04 9.997211e-01
1.157490e+04 1.002656e+00
1.157500e+04 1.005561e+00
1.157510e+04 1.008417e+00
1.157520e+04 1.011210e+00
1.157530e+04 1.013923e+00
1.157540e+04 1.016541e+00
1.157550e+04 1.019052e+00
1.157560e+04 1.021442e+00
1.157570e+04 1.023700e+00
1.157580e+04 1.025815e+00
1.157590e+04 1.027779e+00
1.157600e+04 1.029581e+00
1.157610e+04 1.031216e+00
1.157620e+04 1.032675e+00
1.157630e+04 1.033953e+00
1.157640e+04 1.035044e+00
1.157650e+04 1.035945e+00
1.157660e+04 1.036650e+00
1.157670e+04 1.037157e+00
1.157680e+04 1.037463e+00
1.157690e+04 1.037567e+00
1.157700e+04 1.037465e+00
1.157710e+04 1.037158e+00
1.157720e+04 1.036644e+00
1.157730e+04 1.035924e+00
1.157740e+04 1.034999e+00
1.157750e+04 1.033869e+00
1.157760e+04 1.032538e+00
1.157770e+04 1.031008e+00
1.157780e+04 1.029282e+00
1.157790e+04 1.027365e+00
1.157800e+04 1.025263e+00
1.157810e+04 1.022982e+00
1.157820e+04 1.020530e+00
1.157830e+04 1.017914e+00
1.157840e+04 1.015144e+00
1.157850e+04 1.012231e+00
1.157860e+04 1.009185e+00
1.157870e+04 1.006018e+00
1.157880e+04 1.002743e+00
1.157890e+04 9.993739e-01
1.157900e+04 9.959235e-01
1.157910e+04 9.924064e-01
1.157920e+04 9.888371e-01
1.157930e+04 9.852302e-01
1.157940e+04 9.816005e-01
1.157950e+04 9.779629e-01
1.157960e+04 9.743317e-01
1.157970e+04 9.707213e-01
1.157980e+04 9.671455e-01
1.157990e+04 9.636177e-01
1.158000e+04 9.601504e-01
1.158010e+04 9.567557e-01
1.158020e+04 9.534447e-01
1.158030e+04 9.502276e-01
1.158040e+04 9.471135e-01
1.158050e+04 9.441106e-01
1.158060e+04 9.412259e-01
1.158070e+04 9.384652e-01
1.158080e+04 9.358332e-01
1.158090e+04 9.333334e-01
1.158100e+04 9.309683e-01
1.158110e+04 9.287391e-01
1.158120e+04 9.266462e-01
1.158130e+04 9.246888e-01
1.158140e+04 9.228654e-01
1.158150e+04 9.211738e-01
1.158160e+04 9.196111e-01
1.158170e+04 9.181736e-01
1.158180e+04 9.168577e-01
1.158190e+04 9.156590e-01
1.158200e+04 9.145730e-01
1.158210e+04 9.135954e-01
1.158220e+04 9.127214e-01
1.158230e+04 9.119466e-01
1.158240e+04 9.112664e-01
1.158250e+04 9.106765e-01
1.158260e+04 9.101728e-01
1.158270e+04 9.097512e-01
1.158280e+04 9.094081e-01
1.158290e+04 9.091399e-01
1.158300e+04 9.089431e-01
1.158310e+04 9.088146e-01
1.158320e+04 9.087514e-01
1.158330e+04 9.087506e-01
1.158340e+04 9.088096e-01
1.158350e+04 9.089257e-01
1.158360e+04 9.090965e-01
1.158370e+04 9.093198e-01
1.158380e+04 9.095932e-01
1.158390e+04 9.099146e-01
1.158400e+04 9.102821e-01
1.158410e+04 9.106938e-01
1.158420e+04 9.111479e-01
1.158430e+04 9.116427e-01
1.158440e+04 9.121766e-01
1.158450e+04 9.127481e-01
1.158460e+04 9.133559e-01
1.158470e+04 9.139986e-01
1.158480e+04 9.146751e-01
1.158490e+04 9.153841e-01
1.158500e+04 9.161247e-01
1.158510e+04 9.168959e-01
1.158520e+04 9.176966e-01
1.158530e+04 9.185262e-01
1.158540e+04 9.193836e-01
1.158550e+04 9.202682e-01
1.158560e+04 9.211790e-01
1.158570e+04 9.221155e-01
1.158580e+04 9.230768e-01
1.158590e+04 9.240621e-01
1.158600e+04 9.250709e-01
1.158610e+04 9.261023e-01
1.158620e+04 9.271555e-01
1.158630e+04 9.282299e-01
1.158640e+04 9.293246e-01
1.158650e+04 9.304388e-01
1.158660e+04 9.315717e-01
1.158670e+04 9.327224e-01
1.158680e+04 9.338900e-01
1.158690e+04 9.350737e-01
1.158700e+04 9.362724e-01
1.158710e+04 9.374851e-01
1.158720e+04 9.387109e-01
1.158730e+04 9.399486e-01
1.158740e+04 9.411971e-01
1.158750e+04 9.424552e-01
1.158760e+04 9.437219e-01
1.158770e+04 9.449958e-01
1.158780e+04 9.462756e-01
1.158790e+04 9.475601e-01
1.158800e+04 9.488480e-01
1.158810e+04 9.501378e-01
1.158820e+04 9.514281e-01
1.158830e+04 9.527176e-01
1.158840e+04 9.540047e-01
1.158850e+04 9.552879e-01
1.158860e+04 9.565658e-01
1.158870e+04 9.578369e-01
1.158880e+04 9.590996e-01
1.158890e+04 9.603523e-01
1.158900e+04 9.615936e-01
1.158910e+04 9.628218e-01
1.158920e+04 9.640355e-01
1.158930e+04 9.652331e-01
1.158940e+04 9.664132e-01
1.158950e+04 9.675741e-01
1.158960e+04 9.687146e-01
1.158970e+04 9.698331e-01
1.158980e+04 9.709282e-01
1.158990e+04 9.719987e-01
1.159000e+04 9.730432e-01
1.159010e+04 9.740605e-01
1.159020e+04 9.750494e-01
1.159030e+04 9.760087e-01
1.159040e+04 9.769376e-01
1.159050e+04 9.778349e-01
1.159060e+04 9.786997e-01
1.159070e+04 9.795314e-01
1.159080e+04 9.803290e-01
1.159090e+04 9.810921e-01
1.159100e+04 9.818200e-01
1.159110e+04 9.825123e-01
1.159120e+04 9.831685e-01
1.159130e+04 9.837886e-01
1.159140e+04 9.843721e-01
1.159150e+04 9.849192e-01
1.159160e+04 9.854296e-01
1.159170e+04 9.859037e-01
1.159180e+04 9.863416e-01
1.159190e+04 9.867435e-01
1.159200e+04 9.871097e-01
1.159210e+04 9.874409e-01
1.159220e+04 9.877374e-01
1.159230e+04 9.879999e-01
1.159240e+04 9.882291e-01
1.159250e+04 9.884257e-01
1.159260e+04 9.885906e-01
1.159270e+04 9.887245e-01
1.159280e+04 9.888285e-01
1.159290e+04 9.889035e-01
1.159300e+04 9.889505e-01
1.159310e+04 9.889706e-01
1.159320e+04 9.889648e-01
1.159330e+04 9.889344e-01
1.159340e+04 9.888804e-01
1.159350e+04 9.888040e-01
1.159360e+04 9.887064e-01
1.159370e+04 9.885889e-01
1.159380e+04 9.884524e-01
1.159390e+04 9.882984e-01
1.159400e+04 9.881279e-01
1.159450e+04 9.870704e-01
1.159500e+04 9.857734e-01
1.159550e+04 9.843633e-01
1.159600e+04 9.829444e-01
1.159650e+04 9.815952e-01
1.159700e+04 9.803662e-01
1.159750e+04 9.792805e-01
1.159800e+04 9.783354e-01
1.159850e+04 9.775069e-01
1.159900e+04 9.767564e-01
1.159950e+04 9.760402e-01
1.160000e+04 9.753185e-01
1.160050e+04 9.745657e-01
1.160100e+04 9.737771e-01
1.160150e+04 9.729726e-01
1.160200e+04 9.721974e-01
1.160250e+04 9.715169e-01
1.160300e+04 9.710110e-01
1.160350e+04 9.707651e-01
1.160400e+04 9.708619e-01
1.160450e+04 9.713740e-01
1.160500e+04 9.723581e-01
1.160550e+04 9.738526e-01
1.160600e+04 9.758757e-01
1.160650e+04 9.784271e-01
1.160700e+04 9.814902e-01
1.160750e+04 9.850347e-01
1.160800e+04 9.890201e-01
1.160850e+04 9.933980e-01
1.160900e+04 9.981145e-01
1.160950e+04 1.003111e+00
1.161000e+04 1.008326e+00
1.161050e+04 1.013694e+00
1.161100e+04 1.019145e+00
1.161150e+04 1.024609e+00
1.161200e+04 1.030011e+00
1.161250e+04 1.035271e+00
1.161300e+04 1.040311e+00
1.161350e+04 1.045051e+00
1.161400e+04 1.049417e+00
1.161450e+04 1.053339e+00
1.161500e+04 1.056763e+00
1.161550e+04 1.059650e+00
1.161600e+04 1.061981e+00
1.161650e+04 1.063761e+00
1.161700e+04 1.065016e+00
1.161750e+04 1.065789e+00
1.161800e+04 1.066141e+00
1.161850e+04 1.066138e+00
1.161900e+04 1.065848e+00
1.161950e+04 1.065336e+00
1.162000e+04 1.064657e+00
1.162050e+04 1.063857e+00
1.162100e+04 1.062971e+00
1.162150e+04 1.062024e+00
1.162200e+04 1.061035e+00
