# energy(eV) normalized_intensity
1.141400e+04 6.433304e-04
1.141450e+04 6.253618e-04
1.141500e+04 6.075427e-04
1.141550e+04 5.898742e-04
1.141600e+04 5.723580e-04
1.141650e+04 5.549961e-04
1.141700e+04 5.377897e-04
1.141750e+04 5.207405e-04
1.141800e+04 5.038503e-04
1.141850e+04 4.871210e-04
1.141900e+04 4.705537e-04
1.141950e+04 4.541506e-04
1.142000e+04 4.379136e-04
1.142050e+04 4.218442e-04
1.142100e+04 4.059440e-04
1.142150e+04 3.902154e-04
1.142200e+04 3.746601e-04
1.142250e+04 3.592795e-04
1.142300e+04 3.440763e-04
1.142350e+04 3.290521e-04
1.142400e+04 3.142087e-04
1.142450e+04 2.995483e-04
1.142500e+04 2.850731e-04
1.142550e+04 2.707849e-04
1.142600e+04 2.566858e-04
1.142650e+04 2.427781e-04
1.142700e+04 2.290639e-04
1.142750e+04 2.155454e-04
1.142800e+04 2.022248e-04
1.142850e+04 1.891046e-04
1.142900e+04 1.761867e-04
1.142950e+04 1.634738e-04
1.143000e+04 1.509683e-04
1.143050e+04 1.386720e-04
1.143100e+04 1.265882e-04
1.143150e+04 1.147187e-04
1.143200e+04 1.030665e-04
1.143250e+04 9.163385e-05
1.143300e+04 8.042365e-05
1.143350e+04 6.943820e-05
1.143400e+04 5.868064e-05
1.143450e+04 4.815300e-05
1.143500e+04 3.785872e-05
1.143550e+04 2.780039e-05
1.143600e+04 1.798089e-05
1.143650e+04 8.403077e-06
1.143700e+04 -9.298759e-07
1.143750e+04 -1.001538e-05
1.143800e+04 -1.885000e-05
1.143850e+04 -2.743085e-05
1.143900e+04 -3.575449e-05
1.143950e+04 -4.381803e-05
1.144000e+04 -5.161804e-05
1.144050e+04 -5.915135e-05
1.144100e+04 -6.641422e-05
1.144150e+04 -7.340350e-05
1.144200e+04 -8.011574e-05
1.144250e+04 -8.654748e-05
1.144300e+04 -9.269470e-05
1.144350e+04 -9.855396e-05
1.144400e+04 -1.041215e-04
1.144450e+04 -1.093936e-04
1.144500e+04 -1.143663e-04
1.144550e+04 -1.190355e-04
1.144600e+04 -1.233977e-04
1.144650e+04 -1.274482e-04
1.144700e+04 -1.311833e-04
1.144750e+04 -1.345986e-04
1.144800e+04 -1.376900e-04
1.144850e+04 -1.404526e-04
1.144900e+04 -1.428828e-04
1.144950e+04 -1.449752e-04
1.145000e+04 -1.467254e-04
1.145050e+04 -1.481292e-04
1.145100e+04 -1.491813e-04
1.145150e+04 -1.498771e-04
1.145200e+04 -1.502113e-04
1.145250e+04 -1.501790e-04
1.145300e+04 -1.497755e-04
1.145350e+04 -1.489946e-04
1.145400e+04 -1.478318e-04
1.145450e+04 -1.462816e-04
1.145500e+04 -1.443377e-04
1.145550e+04 -1.419951e-04
1.145600e+04 -1.392479e-04
1.145650e+04 -1.360904e-04
1.145700e+04 -1.325161e-04
1.145750e+04 -1.285193e-04
1.145800e+04 -1.240935e-04
1.145850e+04 -1.192326e-04
1.145900e+04 -1.139297e-04
1.145950e+04 -1.081787e-04
1.146000e+04 -1.019728e-04
1.146050e+04 -9.530478e-05
1.146100e+04 -8.816775e-05
1.146150e+04 -8.055451e-05
1.146200e+04 -7.245789e-05
1.146250e+04 -6.387041e-05
1.146300e+04 -5.478460e-05
1.146350e+04 -4.519241e-05
1.146400e+04 -3.508609e-05
1.146450e+04 -2.445730e-05
1.146500e+04 -1.329799e-05
1.146550e+04 -1.599832e-06
1.146600e+04 1.064609e-05
1.146650e+04 2.344839e-05
1.146700e+04 3.681626e-05
1.146750e+04 5.075863e-05
1.146800e+04 6.528496e-05
1.146850e+04 8.040503e-05
1.146900e+04 9.612833e-05
1.146950e+04 1.124652e-04
1.147000e+04 1.294257e-04
1.147050e+04 1.470202e-04
1.147100e+04 1.652595e-04
1.147150e+04 1.841547e-04
1.147200e+04 2.037169e-04
1.147250e+04 2.239577e-04
1.147300e+04 2.448887e-04
1.147350e+04 2.665215e-04
1.147400e+04 2.888691e-04
1.147450e+04 3.119434e-04
1.147500e+04 3.357575e-04
1.147550e+04 3.603248e-04
1.147600e+04 3.856583e-04
1.147650e+04 4.117721e-04
1.147700e+04 4.386802e-04
1.147750e+04 4.663969e-04
1.147800e+04 4.949377e-04
1.147850e+04 5.243167e-04
1.147900e+04 5.545504e-04
1.147950e+04 5.856543e-04
1.148000e+04 6.176445e-04
1.148050e+04 6.505383e-04
1.148100e+04 6.843525e-04
1.148150e+04 7.191048e-04
1.148200e+04 7.548132e-04
1.148250e+04 7.914961e-04
1.148300e+04 8.291728e-04
1.148350e+04 8.678626e-04
1.148400e+04 9.075855e-04
1.148450e+04 9.483619e-04
1.148500e+04 9.902132e-04
1.148550e+04 1.033161e-03
1.148600e+04 1.077227e-03
1.148650e+04 1.122434e-03
1.148700e+04 1.168807e-03
1.148750e+04 1.216368e-03
1.148800e+04 1.265143e-03
1.148850e+04 1.315157e-03
1.148900e+04 1.366436e-03
1.148950e+04 1.419008e-03
1.149000e+04 1.472899e-03
1.149050e+04 1.528139e-03
1.149100e+04 1.584756e-03
1.149150e+04 1.642781e-03
1.149200e+04 1.702244e-03
1.149250e+04 1.763178e-03
1.149300e+04 1.825616e-03
1.149350e+04 1.889591e-03
1.149400e+04 1.955138e-03
1.149450e+04 2.022293e-03
1.149500e+04 2.091094e-03
1.149550e+04 2.161577e-03
1.149600e+04 2.233784e-03
1.149650e+04 2.307753e-03
1.149700e+04 2.383528e-03
1.149750e+04 2.461151e-03
1.149800e+04 2.540667e-03
1.149850e+04 2.622122e-03
1.149900e+04 2.705563e-03
1.149950e+04 2.791040e-03
1.150000e+04 2.878603e-03
1.150050e+04 2.968305e-03
1.150100e+04 3.060199e-03
1.150150e+04 3.154342e-03
1.150200e+04 3.250792e-03
1.150250e+04 3.349608e-03
1.150300e+04 3.450852e-03
1.150350e+04 3.554589e-03
1.150400e+04 3.660886e-03
1.150450e+04 3.769809e-03
1.150500e+04 3.881433e-03
1.150550e+04 3.995829e-03
1.150600e+04 4.113074e-03
1.150650e+04 4.233248e-03
1.150700e+04 4.356433e-03
1.150750e+04 4.482715e-03
1.150800e+04 4.612182e-03
1.150850e+04 4.744926e-03
1.150900e+04 4.881043e-03
1.150950e+04 5.020632e-03
1.151000e+04 5.163797e-03
1.151050e+04 5.310645e-03
1.151100e+04 5.461287e-03
1.151150e+04 5.615841e-03
1.151200e+04 5.774426e-03
1.151250e+04 5.937169e-03
1.151300e+04 6.104202e-03
1.151350e+04 6.275661e-03
1.151400e+04 6.451688e-03
1.151450e+04 6.632434e-03
1.151500e+04 6.818052e-03
1.151550e+04 7.008705e-03
1.151600e+04 7.204563e-03
1.151650e+04 7.405803e-03
1.151700e+04 7.612610e-03
1.151750e+04 7.825177e-03
1.151800e+04 8.043707e-03
1.151850e+04 8.268413e-03
1.151900e+04 8.499516e-03
1.151950e+04 8.737250e-03
1.152000e+04 8.981859e-03
1.152050e+04 9.233600e-03
1.152100e+04 9.492741e-03
1.152150e+04 9.759566e-03
1.152200e+04 1.003437e-02
1.152250e+04 1.031747e-02
1.152300e+04 1.060919e-02
1.152350e+04 1.090988e-02
1.152400e+04 1.121991e-02
1.152450e+04 1.153966e-02
1.152500e+04 1.186953e-02
1.152550e+04 1.220995e-02
1.152600e+04 1.256139e-02
1.152650e+04 1.292431e-02
1.152700e+04 1.329923e-02
1.152750e+04 1.368669e-02
1.152800e+04 1.408724e-02
1.152850e+04 1.450151e-02
1.152900e+04 1.493012e-02
1.152950e+04 1.537377e-02
1.153000e+04 1.583316e-02
1.153050e+04 1.630909e-02
1.153100e+04 1.680237e-02
1.153150e+04 1.731388e-02
1.153200e+04 1.784456e-02
1.153250e+04 1.839540e-02
1.153300e+04 1.896748e-02
1.153350e+04 1.956194e-02
1.153400e+04 2.018002e-02
1.153450e+04 2.082304e-02
1.153500e+04 2.149242e-02
1.153550e+04 2.218967e-02
1.153600e+04 2.291646e-02
1.153650e+04 2.367455e-02
1.153700e+04 2.446587e-02
1.153750e+04 2.529248e-02
1.153800e+04 2.615665e-02
1.153850e+04 2.706081e-02
1.153900e+04 2.800761e-02
1.153950e+04 2.899994e-02
1.154000e+04 3.004095e-02
1.154050e+04 3.113409e-02
1.154100e+04 3.228311e-02
1.154150e+04 3.349216e-02
1.154200e+04 3.476576e-02
1.154250e+04 3.610891e-02
1.154300e+04 3.752714e-02
1.154350e+04 3.902652e-02
1.154400e+04 4.061382e-02
1.154450e+04 4.229655e-02
1.154500e+04 4.408307e-02
1.154550e+04 4.598272e-02
1.154600e+04 4.800599e-02
1.154650e+04 5.016461e-02
1.154700e+04 5.247185e-02
1.154750e+04 5.494268e-02
1.154800e+04 5.759411e-02
1.154850e+04 6.044549e-02
1.154900e+04 6.351893e-02
1.154950e+04 6.683980e-02
1.155000e+04 7.043735e-02
1.155050e+04 7.434541e-02
1.155100e+04 7.860333e-02
1.155150e+04 8.325708e-02
1.155200e+04 8.836066e-02
1.155250e+04 9.397785e-02
1.155300e+04 1.001844e-01
1.155350e+04 1.070710e-01
1.155400e+04 1.147465e-01
1.155410e+04 1.163874e-01
1.155420e+04 1.180663e-01
1.155430e+04 1.197843e-01
1.155440e+04 1.215427e-01
1.155450e+04 1.233430e-01
1.155460e+04 1.251864e-01
1.155470e+04 1.270744e-01
1.155480e+04 1.290086e-01
1.155490e+04 1.309904e-01
1.155500e+04 1.330216e-01
1.155510e+04 1.351039e-01
1.155520e+04 1.372390e-01
1.155530e+04 1.394289e-01
1.155540e+04 1.416754e-01
1.155550e+04 1.439806e-01
1.155560e+04 1.463467e-01
1.155570e+04 1.487758e-01
1.155580e+04 1.512703e-01
1.155590e+04 1.538327e-01
1.155600e+04 1.564655e-01
1.155610e+04 1.591713e-01
1.155620e+04 1.619530e-01
1.155630e+04 1.648134e-01
1.155640e+04 1.677557e-01
1.155650e+04 1.707831e-01
1.155660e+04 1.738989e-01
1.155670e+04 1.771067e-01
1.155680e+04 1.804102e-01
1.155690e+04 1.838133e-01
1.155700e+04 1.873201e-01
1.155710e+04 1.909349e-01
1.155720e+04 1.946621e-01
1.155730e+04 1.985066e-01
1.155740e+04 2.024733e-01
1.155750e+04 2.065674e-01
1.155760e+04 2.107946e-01
1.155770e+04 2.151605e-01
1.155780e+04 2.196712e-01
1.155790e+04 2.243333e-01
1.155800e+04 2.291534e-01
1.155810e+04 2.341386e-01
1.155820e+04 2.392965e-01
1.155830e+04 2.446349e-01
1.155840e+04 2.501621e-01
1.155850e+04 2.558870e-01
1.155860e+04 2.618185e-01
1.155870e+04 2.679666e-01
1.155880e+04 2.743414e-01
1.155890e+04 2.809535e-01
1.155900e+04 2.878144e-01
1.155910e+04 2.949360e-01
1.155920e+04 3.023306e-01
1.155930e+04 3.100116e-01
1.155940e+04 3.179927e-01
1.155950e+04 3.262884e-01
1.155960e+04 3.349139e-01
1.155970e+04 3.438852e-01
1.155980e+04 3.532190e-01
1.155990e+04 3.629326e-01
1.156000e+04 3.730443e-01
1.156010e+04 3.835730e-01
1.156020e+04 3.945382e-01
1.156030e+04 4.059605e-01
1.156040e+04 4.178607e-01
1.156050e+04 4.302606e-01
1.156060e+04 4.431822e-01
1.156070e+04 4.566480e-01
1.156080e+04 4.706810e-01
1.156090e+04 4.853039e-01
1.156100e+04 5.005395e-01
1.156110e+04 5.164102e-01
1.156120e+04 5.329377e-01
1.156130e+04 5.501426e-01
1.156140e+04 5.680441e-01
1.156150e+04 5.866590e-01
1.156160e+04 6.060017e-01
1.156170e+04 6.260834e-01
1.156180e+04 6.469107e-01
1.156190e+04 6.684856e-01
1.156200e+04 6.908041e-01
1.156210e+04 7.138549e-01
1.156220e+04 7.376188e-01
1.156230e+04 7.620674e-01
1.156240e+04 7.871618e-01
1.156250e+04 8.128515e-01
1.156260e+04 8.390738e-01
1.156270e+04 8.657522e-01
1.156280e+04 8.927964e-01
1.156290e+04 9.201020e-01
1.156300e+04 9.475502e-01
1.156310e+04 9.750085e-01
1.156320e+04 1.002332e+00
1.156330e+04 1.029366e+00
1.156340e+04 1.055947e+00
1.156350e+04 1.081905e+00
1.156360e+04 1.107070e+00
1.156370e+04 1.131274e+00
1.156380e+04 1.154353e+00
1.156390e+04 1.176158e+00
1.156400e+04 1.196550e+00
1.156410e+04 1.215318e+00
1.156420e+04 1.232261e+00
1.156430e+04 1.247290e+00
1.156440e+04 1.260350e+00
1.156450e+04 1.271417e+00
1.156460e+04 1.280500e+00
1.156470e+04 1.287637e+00
1.156480e+04 1.292891e+00
1.156490e+04 1.296346e+00
1.156500e+04 1.298105e+00
1.156510e+04 1.298283e+00
1.156520e+04 1.297003e+00
1.156530e+04 1.294394e+00
1.156540e+04 1.290587e+00
1.156550e+04 1.285712e+00
1.156560e+04 1.279896e+00
1.156570e+04 1.273262e+00
1.156580e+04 1.265927e+00
1.156590e+04 1.258003e+00
1.156600e+04 1.249593e+00
1.156610e+04 1.240795e+00
1.156620e+04 1.231698e+00
1.156630e+04 1.222385e+00
1.156640e+04 1.212931e+00
1.156650e+04 1.203405e+00
1.156660e+04 1.193868e+00
1.156670e+04 1.184374e+00
1.156680e+04 1.174973e+00
1.156690e+04 1.165706e+00
1.156700e+04 1.156611e+00
1.156710e+04 1.147717e+00
1.156720e+04 1.139051e+00
1.156730e+04 1.130633e+00
1.156740e+04 1.122480e+00
1.156750e+04 1.114604e+00
1.156760e+04 1.107011e+00
1.156770e+04 1.099708e+00
1.156780e+04 1.092695e+00
1.156790e+04 1.085970e+00
1.156800e+04 1.079529e+00
1.156810e+04 1.073366e+00
1.156820e+04 1.067473e+00
1.156830e+04 1.061839e+00
1.156840e+04 1.056454e+00
1.156850e+04 1.051307e+00
1.156860e+04 1.046384e+00
1.156870e+04 1.041674e+00
1.156880e+04 1.037163e+00
1.156890e+04 1.032841e+00
1.156900e+04 1.028694e+00
1.156910e+04 1.024712e+00
1.156920e+04 1.020885e+00
1.156930e+04 1.017203e+00
1.156940e+04 1.013658e+00
1.156950e+04 1.010242e+00
1.156960e+04 1.006949e+00
1.156970e+04 1.003774e+00
1.156980e+04 1.000712e+00
1.156990e+04 9.977597e-01
1.157000e+04 9.949137e-01
1.157010e+04 9.921721e-01
1.157020e+04 9.895332e-01
1.157030e+04 9.869957e-01
1.157040e+04 9.845587e-01
1.157050e+04 9.822217e-01
1.157060e+04 9.799840e-01
1.157070e+04 9.778453e-01
1.157080e+04 9.758050e-01
1.157090e+04 9.738628e-01
1.157100e+04 9.720179e-01
1.157110e+04 9.702698e-01
1.157120e+04 9.686174e-01
1.157130e+04 9.670599e-01
1.157140e+04 9.655958e-01
1.157150e+04 9.642238e-01
1.157160e+04 9.629422e-01
1.157170e+04 9.617494e-01
1.157180e+04 9.606432e-01
1.157190e+04 9.596216e-01
1.157200e+04 9.586824e-01
1.157210e+04 9.578230e-01
1.157220e+04 9.570409e-01
1.157230e+04 9.563336e-01
1.157240e+04 9.556982e-01
1.157250e+04 9.551319e-01
1.157260e+04 9.546318e-01
1.157270e+04 9.541948e-01
1.157280e+04 9.538180e-01
1.157290e+04 9.534983e-01
1.157300e+04 9.532325e-01
1.157310e+04 9.530175e-01
1.157320e+04 9.528500e-01
1.157330e+04 9.527270e-01
1.157340e+04 9.526451e-01
1.157350e+04 9.526012e-01
1.157360e+04 9.525922e-01
1.157370e+04 9.526148e-01
1.157380e+04 9.526658e-01
1.157390e+04 9.527422e-01
1.157400e+04 9.528409e-01
1.157410e+04 9.529588e-01
1.157420e+04 9.530929e-01
1.157430e+04 9.532402e-01
1.157440e+04 9.533979e-01
1.157450e+04 9.535632e-01
1.157460e+04 9.537332e-01
1.157470e+04 9.539052e-01
1.157480e+04 9.540768e-01
1.157490e+04 9.542452e-01
1.157500e+04 9.544081e-01
1.157510e+04 9.545632e-01
1.157520e+04 9.547082e-01
1.157530e+04 9.548408e-01
1.157540e+04 9.549592e-01
1.157550e+04 9.550612e-01
1.157560e+04 9.551451e-01
1.157570e+04 9.552092e-01
1.157580e+04 9.552518e-01
1.157590e+04 9.552714e-01
1.157600e+04 9.552666e-01
1.157610e+04 9.552362e-01
1.157620e+04 9.551790e-01
1.157630e+04 9.550941e-01
1.157640e+04 9.549804e-01
1.157650e+04 9.548372e-01
1.157660e+04 9.546639e-01
1.157670e+04 9.544600e-01
1.157680e+04 9.542249e-01
1.157690e+04 9.539585e-01
1.157700e+04 9.536605e-01
1.157710e+04 9.533309e-01
1.157720e+04 9.529697e-01
1.157730e+04 9.525773e-01
1.157740e+04 9.521538e-01
1.157750e+04 9.516997e-01
1.157760e+04 9.512154e-01
1.157770e+04 9.507018e-01
1.157780e+04 9.501593e-01
1.157790e+04 9.495890e-01
1.157800e+04 9.489917e-01
1.157810e+04 9.483685e-01
1.157820e+04 9.477204e-01
1.157830e+04 9.470488e-01
1.157840e+04 9.463548e-01
1.157850e+04 9.456398e-01
1.157860e+04 9.449053e-01
1.157870e+04 9.441527e-01
1.157880e+04 9.433836e-01
1.157890e+04 9.425995e-01
1.157900e+04 9.418021e-01
1.157910e+04 9.409932e-01
1.157920e+04 9.401743e-01
1.157930e+04 9.393473e-01
1.157940e+04 9.385139e-01
1.157950e+04 9.376758e-01
1.157960e+04 9.368349e-01
1.157970e+04 9.359930e-01
1.157980e+04 9.351518e-01
1.157990e+04 9.343131e-01
1.158000e+04 9.334786e-01
1.158010e+04 9.326500e-01
1.158020e+04 9.318291e-01
1.158030e+04 9.310176e-01
1.158040e+04 9.302170e-01
1.158050e+04 9.294290e-01
1.158060e+04 9.286550e-01
1.158070e+04 9.278966e-01
1.158080e+04 9.271553e-01
1.158090e+04 9.264323e-01
1.158100e+04 9.257291e-01
1.158110e+04 9.250469e-01
1.158120e+04 9.243869e-01
1.158130e+04 9.237502e-01
1.158140e+04 9.231380e-01
1.158150e+04 9.225512e-01
1.158160e+04 9.219909e-01
1.158170e+04 9.214578e-01
1.158180e+04 9.209530e-01
1.158190e+04 9.204770e-01
1.158200e+04 9.200307e-01
1.158210e+04 9.196147e-01
1.158220e+04 9.192296e-01
1.158230e+04 9.188759e-01
1.158240e+04 9.185542e-01
1.158250e+04 9.182650e-01
1.158260e+04 9.180086e-01
1.158270e+04 9.177854e-01
1.158280e+04 9.175957e-01
1.158290e+04 9.174398e-01
1.158300e+04 9.173181e-01
1.158310e+04 9.172306e-01
1.158320e+04 9.171776e-01
1.158330e+04 9.171594e-01
1.158340e+04 9.171759e-01
1.158350e+04 9.172273e-01
1.158360e+04 9.173138e-01
1.158370e+04 9.174353e-01
1.158380e+04 9.175920e-01
1.158390e+04 9.177838e-01
1.158400e+04 9.180108e-01
1.158410e+04 9.182729e-01
1.158420e+04 9.185701e-01
1.158430e+04 9.189024e-01
1.158440e+04 9.192696e-01
1.158450e+04 9.196718e-01
1.158460e+04 9.201087e-01
1.158470e+04 9.205802e-01
1.158480e+04 9.210862e-01
1.158490e+04 9.216264e-01
1.158500e+04 9.222007e-01
1.158510e+04 9.228089e-01
1.158520e+04 9.234505e-01
1.158530e+04 9.241255e-01
1.158540e+04 9.248333e-01
1.158550e+04 9.255738e-01
1.158560e+04 9.263464e-01
1.158570e+04 9.271508e-01
1.158580e+04 9.279864e-01
1.158590e+04 9.288528e-01
1.158600e+04 9.297495e-01
1.158610e+04 9.306759e-01
1.158620e+04 9.316312e-01
1.158630e+04 9.326150e-01
1.158640e+04 9.336264e-01
1.158650e+04 9.346648e-01
1.158660e+04 9.357293e-01
1.158670e+04 9.368190e-01
1.158680e+04 9.379332e-01
1.158690e+04 9.390708e-01
1.158700e+04 9.402308e-01
1.158710e+04 9.414122e-01
1.158720e+04 9.426140e-01
1.158730e+04 9.438350e-01
1.158740e+04 9.450740e-01
1.158750e+04 9.463297e-01
1.158760e+04 9.476009e-01
1.158770e+04 9.488862e-01
1.158780e+04 9.501843e-01
1.158790e+04 9.514936e-01
1.158800e+04 9.528127e-01
1.158810e+04 9.541401e-01
1.158820e+04 9.554743e-01
1.158830e+04 9.568134e-01
1.158840e+04 9.581561e-01
1.158850e+04 9.595004e-01
1.158860e+04 9.608448e-01
1.158870e+04 9.621875e-01
1.158880e+04 9.635265e-01
1.158890e+04 9.648603e-01
1.158900e+04 9.661870e-01
1.158910e+04 9.675046e-01
1.158920e+04 9.688115e-01
1.158930e+04 9.701058e-01
1.158940e+04 9.713856e-01
1.158950e+04 9.726491e-01
1.158960e+04 9.738945e-01
1.158970e+04 9.751201e-01
1.158980e+04 9.763242e-01
1.158990e+04 9.775050e-01
1.159000e+04 9.786608e-01
1.159010e+04 9.797901e-01
1.159020e+04 9.808914e-01
1.159030e+04 9.819631e-01
1.159040e+04 9.830039e-01
1.159050e+04 9.840125e-01
1.159060e+04 9.849875e-01
1.159070e+04 9.859279e-01
1.159080e+04 9.868326e-01
1.159090e+04 9.877006e-01
1.159100e+04 9.885311e-01
1.159110e+04 9.893234e-01
1.159120e+04 9.900768e-01
1.159130e+04 9.907908e-01
1.159140e+04 9.914650e-01
1.159150e+04 9.920990e-01
1.159160e+04 9.926928e-01
1.159170e+04 9.932461e-01
1.159180e+04 9.937592e-01
1.159190e+04 9.942320e-01
1.159200e+04 9.946650e-01
1.159210e+04 9.950584e-01
1.159220e+04 9.954128e-01
1.159230e+04 9.957286e-01
1.159240e+04 9.960067e-01
1.159250e+04 9.962476e-01
1.159260e+04 9.964523e-01
1.159270e+04 9.966216e-01
1.159280e+04 9.967567e-01
1.159290e+04 9.968584e-01
1.159300e+04 9.969280e-01
1.159310e+04 9.969665e-01
1.159320e+04 9.969753e-01
1.159330e+04 9.969555e-01
1.159340e+04 9.969085e-01
1.159350e+04 9.968356e-01
1.159360e+04 9.967380e-01
1.159370e+04 9.966173e-01
1.159380e+04 9.964747e-01
1.159390e+04 9.963117e-01
1.159400e+04 9.961296e-01
1.159450e+04 9.949799e-01
1.159500e+04 9.935513e-01
1.159550e+04 9.919910e-01
1.159600e+04 9.904206e-01
1.159650e+04 9.889322e-01
1.159700e+04 9.875850e-01
1.159750e+04 9.864057e-01
1.159800e+04 9.853900e-01
1.159850e+04 9.845079e-01
1.159900e+04 9.837109e-01
1.159950e+04 9.829432e-01
1.160000e+04 9.821538e-01
1.160050e+04 9.813080e-01
1.160100e+04 9.803960e-01
1.160150e+04 9.794387e-01
1.160200e+04 9.784865e-01
1.160250e+04 9.776150e-01
1.160300e+04 9.769167e-01
1.160350e+04 9.764904e-01
1.160400e+04 9.764315e-01
1.160450e+04 9.768226e-01
1.160500e+04 9.777280e-01
1.160550e+04 9.791898e-01
1.160600e+04 9.812269e-01
1.160650e+04 9.838372e-01
1.160700e+04 9.870005e-01
1.160750e+04 9.906817e-01
1.160800e+04 9.948354e-01
1.160850e+04 9.994083e-01
1.160900e+04 1.004342e+00
1.160950e+04 1.009573e+00
1.161000e+04 1.015036e+00
1.161050e+04 1.020661e+00
1.161100e+04 1.026377e+00
1.161150e+04 1.032106e+00
1.161200e+04 1.037770e+00
1.161250e+04 1.043285e+00
1.161300e+04 1.048564e+00
1.161350e+04 1.053524e+00
1.161400e+04 1.058079e+00
1.161450e+04 1.062157e+00
1.161500e+04 1.065696e+00
1.161550e+04 1.068653e+00
1.161600e+04 1.071008e+00
1.161650e+04 1.072767e+00
1.161700e+04 1.073962e+00
1.161750e+04 1.074644e+00
1.161800e+04 1.074882e+00
1.161850e+04 1.074750e+00
1.161900e+04 1.074326e+00
1.161950e+04 1.073681e+00
1.162000e+04 1.072876e+00
1.162050e+04 1.071959e+00
1.162100e+04 1.070965e+00
1.162150e+04 1.069922e+00
1.162200e+04 1.068844e+00
