# energy(eV) normalized_intensity
1.141400e+04 6.409256e-04
1.141450e+04 6.230243e-04
1.141500e+04 6.052718e-04
1.141550e+04 5.876694e-04
1.141600e+04 5.702187e-04
1.141650e+04 5.529217e-04
1.141700e+04 5.357797e-04
1.141750e+04 5.187942e-04
1.141800e+04 5.019671e-04
1.141850e+04 4.853004e-04
1.141900e+04 4.687951e-04
1.141950e+04 4.524533e-04
1.142000e+04 4.362770e-04
1.142050e+04 4.202676e-04
1.142100e+04 4.044269e-04
1.142150e+04 3.887571e-04
1.142200e+04 3.732600e-04
1.142250e+04 3.579369e-04
1.142300e+04 3.427905e-04
1.142350e+04 3.278225e-04
1.142400e+04 3.130345e-04
1.142450e+04 2.984290e-04
1.142500e+04 2.840078e-04
1.142550e+04 2.697730e-04
1.142600e+04 2.557267e-04
1.142650e+04 2.418710e-04
1.142700e+04 2.282080e-04
1.142750e+04 2.147400e-04
1.142800e+04 2.014692e-04
1.142850e+04 1.883981e-04
1.142900e+04 1.755284e-04
1.142950e+04 1.628630e-04
1.143000e+04 1.504042e-04
1.143050e+04 1.381539e-04
1.143100e+04 1.261152e-04
1.143150e+04 1.142901e-04
1.143200e+04 1.026814e-04
1.143250e+04 9.129150e-05
1.143300e+04 8.012319e-05
1.143350e+04 6.917878e-05
1.143400e+04 5.846142e-05
1.143450e+04 4.797311e-05
1.143500e+04 3.771729e-05
1.143550e+04 2.769654e-05
1.143600e+04 1.791372e-05
1.143650e+04 8.371686e-06
1.143700e+04 -9.264023e-07
1.143750e+04 -9.977972e-06
1.143800e+04 -1.877959e-05
1.143850e+04 -2.732839e-05
1.143900e+04 -3.562093e-05
1.143950e+04 -4.365436e-05
1.144000e+04 -5.142523e-05
1.144050e+04 -5.893041e-05
1.144100e+04 -6.616616e-05
1.144150e+04 -7.312933e-05
1.144200e+04 -7.981650e-05
1.144250e+04 -8.622422e-05
1.144300e+04 -9.234849e-05
1.144350e+04 -9.818587e-05
1.144400e+04 -1.037326e-04
1.144450e+04 -1.089851e-04
1.144500e+04 -1.139392e-04
1.144550e+04 -1.185909e-04
1.144600e+04 -1.229369e-04
1.144650e+04 -1.269722e-04
1.144700e+04 -1.306934e-04
1.144750e+04 -1.340959e-04
1.144800e+04 -1.371758e-04
1.144850e+04 -1.399281e-04
1.144900e+04 -1.423492e-04
1.144950e+04 -1.444338e-04
1.145000e+04 -1.461775e-04
1.145050e+04 -1.475761e-04
1.145100e+04 -1.486243e-04
1.145150e+04 -1.493174e-04
1.145200e+04 -1.496504e-04
1.145250e+04 -1.496183e-04
1.145300e+04 -1.492162e-04
1.145350e+04 -1.484383e-04
1.145400e+04 -1.472798e-04
1.145450e+04 -1.457354e-04
1.145500e+04 -1.437988e-04
1.145550e+04 -1.414650e-04
1.145600e+04 -1.387280e-04
1.145650e+04 -1.355823e-04
1.145700e+04 -1.320213e-04
1.145750e+04 -1.280395e-04
1.145800e+04 -1.236302e-04
1.145850e+04 -1.187874e-04
1.145900e+04 -1.135043e-04
1.145950e+04 -1.077748e-04
1.146000e+04 -1.015921e-04
1.146050e+04 -9.494899e-05
1.146100e+04 -8.783861e-05
1.146150e+04 -8.025379e-05
1.146200e+04 -7.218740e-05
1.146250e+04 -6.363198e-05
1.146300e+04 -5.458009e-05
1.146350e+04 -4.502372e-05
1.146400e+04 -3.495512e-05
1.146450e+04 -2.436601e-05
1.146500e+04 -1.324835e-05
1.146550e+04 -1.593861e-06
1.146600e+04 1.060635e-05
1.146650e+04 2.336086e-05
1.146700e+04 3.667885e-05
1.146750e+04 5.056917e-05
1.146800e+04 6.504129e-05
1.146850e+04 8.010494e-05
1.146900e+04 9.576955e-05
1.146950e+04 1.120455e-04
1.147000e+04 1.289427e-04
1.147050e+04 1.464715e-04
1.147100e+04 1.646428e-04
1.147150e+04 1.834675e-04
1.147200e+04 2.029567e-04
1.147250e+04 2.231219e-04
1.147300e+04 2.439748e-04
1.147350e+04 2.655269e-04
1.147400e+04 2.877911e-04
1.147450e+04 3.107793e-04
1.147500e+04 3.345046e-04
1.147550e+04 3.589802e-04
1.147600e+04 3.842192e-04
1.147650e+04 4.102355e-04
1.147700e+04 4.370432e-04
1.147750e+04 4.646566e-04
1.147800e+04 4.930909e-04
1.147850e+04 5.223603e-04
1.147900e+04 5.524812e-04
1.147950e+04 5.834691e-04
1.148000e+04 6.153400e-04
1.148050e+04 6.481111e-04
1.148100e+04 6.817992e-04
1.148150e+04 7.164218e-04
1.148200e+04 7.519970e-04
1.148250e+04 7.885431e-04
1.148300e+04 8.260793e-04
1.148350e+04 8.646248e-04
1.148400e+04 9.041995e-04
1.148450e+04 9.448239e-04
1.148500e+04 9.865191e-04
1.148550e+04 1.029307e-03
1.148600e+04 1.073208e-03
1.148650e+04 1.118247e-03
1.148700e+04 1.164447e-03
1.148750e+04 1.211831e-03
1.148800e+04 1.260424e-03
1.148850e+04 1.310251e-03
1.148900e+04 1.361339e-03
1.148950e+04 1.413715e-03
1.149000e+04 1.467405e-03
1.149050e+04 1.522439e-03
1.149100e+04 1.578845e-03
1.149150e+04 1.636653e-03
1.149200e+04 1.695895e-03
1.149250e+04 1.756602e-03
1.149300e+04 1.818807e-03
1.149350e+04 1.882543e-03
1.149400e+04 1.947846e-03
1.149450e+04 2.014751e-03
1.149500e+04 2.083295e-03
1.149550e+04 2.153515e-03
1.149600e+04 2.225453e-03
1.149650e+04 2.299146e-03
1.149700e+04 2.374639e-03
1.149750e+04 2.451973e-03
1.149800e+04 2.531192e-03
1.149850e+04 2.612343e-03
1.149900e+04 2.695474e-03
1.149950e+04 2.780632e-03
1.150000e+04 2.867868e-03
1.150050e+04 2.957236e-03
1.150100e+04 3.048788e-03
1.150150e+04 3.142580e-03
1.150200e+04 3.238670e-03
1.150250e+04 3.337118e-03
1.150300e+04 3.437985e-03
1.150350e+04 3.541335e-03
1.150400e+04 3.647235e-03
1.150450e+04 3.755753e-03
1.150500e+04 3.866960e-03
1.150550e+04 3.980930e-03
1.150600e+04 4.097738e-03
1.150650e+04 4.217464e-03
1.150700e+04 4.340190e-03
1.150750e+04 4.466001e-03
1.150800e+04 4.594986e-03
1.150850e+04 4.727235e-03
1.150900e+04 4.862845e-03
1.150950e+04 5.001914e-03
1.151000e+04 5.144546e-03
1.151050e+04 5.290847e-03
1.151100e+04 5.440928e-03
1.151150e+04 5.594905e-03
1.151200e+04 5.752900e-03
1.151250e+04 5.915037e-03
1.151300e+04 6.081447e-03
1.151350e+04 6.252267e-03
1.151400e+04 6.427639e-03
1.151450e+04 6.607710e-03
1.151500e+04 6.792637e-03
1.151550e+04 6.982580e-03
1.151600e+04 7.177708e-03
1.151650e+04 7.378199e-03
1.151700e+04 7.584235e-03
1.151750e+04 7.796010e-03
1.151800e+04 8.013726e-03
1.151850e+04 8.237595e-03
1.151900e+04 8.467837e-03
1.151950e+04 8.704685e-03
1.152000e+04 8.948383e-03
1.152050e+04 9.199186e-03
1.152100e+04 9.457362e-03
1.152150e+04 9.723193e-03
1.152200e+04 9.996975e-03
1.152250e+04 1.027902e-02
1.152300e+04 1.056965e-02
1.152350e+04 1.086923e-02
1.152400e+04 1.117810e-02
1.152450e+04 1.149665e-02
1.152500e+04 1.182529e-02
1.152550e+04 1.216445e-02
1.152600e+04 1.251458e-02
1.152650e+04 1.287615e-02
1.152700e+04 1.324968e-02
1.152750e+04 1.363569e-02
1.152800e+04 1.403475e-02
1.152850e+04 1.444747e-02
1.152900e+04 1.487449e-02
1.152950e+04 1.531648e-02
1.153000e+04 1.577417e-02
1.153050e+04 1.624833e-02
1.153100e+04 1.673977e-02
1.153150e+04 1.724937e-02
1.153200e+04 1.777807e-02
1.153250e+04 1.832686e-02
1.153300e+04 1.889681e-02
1.153350e+04 1.948906e-02
1.153400e+04 2.010484e-02
1.153450e+04 2.074547e-02
1.153500e+04 2.141235e-02
1.153550e+04 2.210701e-02
1.153600e+04 2.283109e-02
1.153650e+04 2.358636e-02
1.153700e+04 2.437472e-02
1.153750e+04 2.519826e-02
1.153800e+04 2.605921e-02
1.153850e+04 2.696000e-02
1.153900e+04 2.790327e-02
1.153950e+04 2.889191e-02
1.154000e+04 2.992905e-02
1.154050e+04 3.101812e-02
1.154100e+04 3.216286e-02
1.154150e+04 3.336741e-02
1.154200e+04 3.463626e-02
1.154250e+04 3.597442e-02
1.154300e+04 3.738736e-02
1.154350e+04 3.888116e-02
1.154400e+04 4.046255e-02
1.154450e+04 4.213901e-02
1.154500e+04 4.391888e-02
1.154550e+04 4.581146e-02
1.154600e+04 4.782719e-02
1.154650e+04 4.997778e-02
1.154700e+04 5.227643e-02
1.154750e+04 5.473806e-02
1.154800e+04 5.737962e-02
1.154850e+04 6.022038e-02
1.154900e+04 6.328238e-02
1.154950e+04 6.659089e-02
1.155000e+04 7.017504e-02
1.155050e+04 7.406856e-02
1.155100e+04 7.831062e-02
1.155150e+04 8.294705e-02
1.155200e+04 8.803163e-02
1.155250e+04 9.362790e-02
1.155300e+04 9.981138e-02
1.155350e+04 1.066723e-01
1.155400e+04 1.143192e-01
1.155410e+04 1.159540e-01
1.155420e+04 1.176266e-01
1.155430e+04 1.193383e-01
1.155440e+04 1.210902e-01
1.155450e+04 1.228837e-01
1.155460e+04 1.247203e-01
1.155470e+04 1.266013e-01
1.155480e+04 1.285282e-01
1.155490e+04 1.305027e-01
1.155500e+04 1.325263e-01
1.155510e+04 1.346009e-01
1.155520e+04 1.367280e-01
1.155530e+04 1.389097e-01
1.155540e+04 1.411479e-01
1.155550e+04 1.434445e-01
1.155560e+04 1.458018e-01
1.155570e+04 1.482219e-01
1.155580e+04 1.507071e-01
1.155590e+04 1.532599e-01
1.155600e+04 1.558829e-01
1.155610e+04 1.585786e-01
1.155620e+04 1.613500e-01
1.155630e+04 1.641998e-01
1.155640e+04 1.671311e-01
1.155650e+04 1.701472e-01
1.155660e+04 1.732515e-01
1.155670e+04 1.764473e-01
1.155680e+04 1.797385e-01
1.155690e+04 1.831289e-01
1.155700e+04 1.866227e-01
1.155710e+04 1.902240e-01
1.155720e+04 1.939373e-01
1.155730e+04 1.977675e-01
1.155740e+04 2.017194e-01
1.155750e+04 2.057983e-01
1.155760e+04 2.100097e-01
1.155770e+04 2.143594e-01
1.155780e+04 2.188533e-01
1.155790e+04 2.234980e-01
1.155800e+04 2.283002e-01
1.155810e+04 2.332669e-01
1.155820e+04 2.384056e-01
1.155830e+04 2.437241e-01
1.155840e+04 2.492308e-01
1.155850e+04 2.549343e-01
1.155860e+04 2.608438e-01
1.155870e+04 2.669689e-01
1.155880e+04 2.733200e-01
1.155890e+04 2.799075e-01
1.155900e+04 2.867429e-01
1.155910e+04 2.938379e-01
1.155920e+04 3.012050e-01
1.155930e+04 3.088574e-01
1.155940e+04 3.168088e-01
1.155950e+04 3.250736e-01
1.155960e+04 3.336670e-01
1.155970e+04 3.426049e-01
1.155980e+04 3.519040e-01
1.155990e+04 3.615814e-01
1.156000e+04 3.716555e-01
1.156010e+04 3.821449e-01
1.156020e+04 3.930694e-01
1.156030e+04 4.044491e-01
1.156040e+04 4.163051e-01
1.156050e+04 4.286588e-01
1.156060e+04 4.415323e-01
1.156070e+04 4.549480e-01
1.156080e+04 4.689287e-01
1.156090e+04 4.834971e-01
1.156100e+04 4.986760e-01
1.156110e+04 5.144877e-01
1.156120e+04 5.309537e-01
1.156130e+04 5.480946e-01
1.156140e+04 5.659293e-01
1.156150e+04 5.844749e-01
1.156160e+04 6.037457e-01
1.156170e+04 6.237526e-01
1.156180e+04 6.445024e-01
1.156190e+04 6.659970e-01
1.156200e+04 6.882324e-01
1.156210e+04 7.111974e-01
1.156220e+04 7.348729e-01
1.156230e+04 7.592304e-01
1.156240e+04 7.842314e-01
1.156250e+04 8.098255e-01
1.156260e+04 8.359502e-01
1.156270e+04 8.625292e-01
1.156280e+04 8.894728e-01
1.156290e+04 9.166768e-01
1.156300e+04 9.440227e-01
1.156310e+04 9.713789e-01
1.156320e+04 9.986011e-01
1.156330e+04 1.025534e+00
1.156340e+04 1.052016e+00
1.156350e+04 1.077878e+00
1.156360e+04 1.102949e+00
1.156370e+04 1.127062e+00
1.156380e+04 1.150056e+00
1.156390e+04 1.171780e+00
1.156400e+04 1.192095e+00
1.156410e+04 1.210869e+00
1.156420e+04 1.227986e+00
1.156430e+04 1.243367e+00
1.156440e+04 1.256963e+00
1.156450e+04 1.268745e+00
1.156460e+04 1.278715e+00
1.156470e+04 1.286894e+00
1.156480e+04 1.293327e+00
1.156490e+04 1.298076e+00
1.156500e+04 1.301218e+00
1.156510e+04 1.302844e+00
1.156520e+04 1.303051e+00
1.156530e+04 1.301943e+00
1.156540e+04 1.299630e+00
1.156550e+04 1.296219e+00
1.156560e+04 1.291818e+00
1.156570e+04 1.286535e+00
1.156580e+04 1.280472e+00
1.156590e+04 1.273727e+00
1.156600e+04 1.266395e+00
1.156610e+04 1.258566e+00
1.156620e+04 1.250323e+00
1.156630e+04 1.241746e+00
1.156640e+04 1.232909e+00
1.156650e+04 1.223880e+00
1.156660e+04 1.214724e+00
1.156670e+04 1.205499e+00
1.156680e+04 1.196259e+00
1.156690e+04 1.187053e+00
1.156700e+04 1.177928e+00
1.156710e+04 1.168921e+00
1.156720e+04 1.160071e+00
1.156730e+04 1.151409e+00
1.156740e+04 1.142963e+00
1.156750e+04 1.134756e+00
1.156760e+04 1.126809e+00
1.156770e+04 1.119140e+00
1.156780e+04 1.111761e+00
1.156790e+04 1.104683e+00
1.156800e+04 1.097912e+00
1.156810e+04 1.091454e+00
1.156820e+04 1.085308e+00
1.156830e+04 1.079475e+00
1.156840e+04 1.073950e+00
1.156850e+04 1.068726e+00
1.156860e+04 1.063797e+00
1.156870e+04 1.059151e+00
1.156880e+04 1.054776e+00
1.156890e+04 1.050657e+00
1.156900e+04 1.046781e+00
1.156910e+04 1.043128e+00
1.156920e+04 1.039682e+00
1.156930e+04 1.036423e+00
1.156940e+04 1.033332e+00
1.156950e+04 1.030389e+00
1.156960e+04 1.027574e+00
1.156970e+04 1.024867e+00
1.156980e+04 1.022250e+00
1.156990e+04 1.019704e+00
1.157000e+04 1.017214e+00
1.157010e+04 1.014764e+00
1.157020e+04 1.012342e+00
1.157030e+04 1.009938e+00
1.157040e+04 1.007543e+00
1.157050e+04 1.005152e+00
1.157060e+04 1.002763e+00
1.157070e+04 1.000374e+00
1.157080e+04 9.979894e-01
1.157090e+04 9.956129e-01
1.157100e+04 9.932518e-01
1.157110e+04 9.909151e-01
1.157120e+04 9.886134e-01
1.157130e+04 9.863586e-01
1.157140e+04 9.841639e-01
1.157150e+04 9.820426e-01
1.157160e+04 9.800088e-01
1.157170e+04 9.780763e-01
1.157180e+04 9.762586e-01
1.157190e+04 9.745687e-01
1.157200e+04 9.730186e-01
1.157210e+04 9.716194e-01
1.157220e+04 9.703806e-01
1.157230e+04 9.693108e-01
1.157240e+04 9.684166e-01
1.157250e+04 9.677034e-01
1.157260e+04 9.671746e-01
1.157270e+04 9.668322e-01
1.157280e+04 9.666764e-01
1.157290e+04 9.667059e-01
1.157300e+04 9.669175e-01
1.157310e+04 9.673068e-01
1.157320e+04 9.678677e-01
1.157330e+04 9.685929e-01
1.157340e+04 9.694736e-01
1.157350e+04 9.705000e-01
1.157360e+04 9.716615e-01
1.157370e+04 9.729461e-01
1.157380e+04 9.743415e-01
1.157390e+04 9.758346e-01
1.157400e+04 9.774117e-01
1.157410e+04 9.790592e-01
1.157420e+04 9.807628e-01
1.157430e+04 9.825085e-01
1.157440e+04 9.842824e-01
1.157450e+04 9.860707e-01
1.157460e+04 9.878597e-01
1.157470e+04 9.896366e-01
1.157480e+04 9.913886e-01
1.157490e+04 9.931038e-01
1.157500e+04 9.947709e-01
1.157510e+04 9.963791e-01
1.157520e+04 9.979184e-01
1.157530e+04 9.993797e-01
1.157540e+04 1.000754e+00
1.157550e+04 1.002035e+00
1.157560e+04 1.003214e+00
1.157570e+04 1.004286e+00
1.157580e+04 1.005244e+00
1.157590e+04 1.006085e+00
1.157600e+04 1.006804e+00
1.157610e+04 1.007398e+00
1.157620e+04 1.007864e+00
1.157630e+04 1.008199e+00
1.157640e+04 1.008403e+00
1.157650e+04 1.008473e+00
1.157660e+04 1.008410e+00
1.157670e+04 1.008214e+00
1.157680e+04 1.007885e+00
1.157690e+04 1.007425e+00
1.157700e+04 1.006834e+00
1.157710e+04 1.006115e+00
1.157720e+04 1.005271e+00
1.157730e+04 1.004303e+00
1.157740e+04 1.003216e+00
1.157750e+04 1.002013e+00
1.157760e+04 1.000698e+00
1.157770e+04 9.992752e-01
1.157780e+04 9.977502e-01
1.157790e+04 9.961277e-01
1.157800e+04 9.944133e-01
1.157810e+04 9.926126e-01
1.157820e+04 9.907318e-01
1.157830e+04 9.887771e-01
1.157840e+04 9.867548e-01
1.157850e+04 9.846717e-01
1.157860e+04 9.825345e-01
1.157870e+04 9.803500e-01
1.157880e+04 9.781251e-01
1.157890e+04 9.758667e-01
1.157900e+04 9.735818e-01
1.157910e+04 9.712772e-01
1.157920e+04 9.689596e-01
1.157930e+04 9.666356e-01
1.157940e+04 9.643118e-01
1.157950e+04 9.619944e-01
1.157960e+04 9.596895e-01
1.157970e+04 9.574029e-01
1.157980e+04 9.551402e-01
1.157990e+04 9.529067e-01
1.158000e+04 9.507074e-01
1.158010e+04 9.485468e-01
1.158020e+04 9.464293e-01
1.158030e+04 9.443590e-01
1.158040e+04 9.423394e-01
1.158050e+04 9.403739e-01
1.158060e+04 9.384654e-01
1.158070e+04 9.366165e-01
1.158080e+04 9.348294e-01
1.158090e+04 9.331061e-01
1.158100e+04 9.314481e-01
1.158110e+04 9.298569e-01
1.158120e+04 9.283333e-01
1.158130e+04 9.268781e-01
1.158140e+04 9.254918e-01
1.158150e+04 9.241746e-01
1.158160e+04 9.229264e-01
1.158170e+04 9.217473e-01
1.158180e+04 9.206366e-01
1.158190e+04 9.195940e-01
1.158200e+04 9.186188e-01
1.158210e+04 9.177103e-01
1.158220e+04 9.168676e-01
1.158230e+04 9.160898e-01
1.158240e+04 9.153760e-01
1.158250e+04 9.147251e-01
1.158260e+04 9.141363e-01
1.158270e+04 9.136083e-01
1.158280e+04 9.131404e-01
1.158290e+04 9.127315e-01
1.158300e+04 9.123807e-01
1.158310e+04 9.120870e-01
1.158320e+04 9.118497e-01
1.158330e+04 9.116679e-01
1.158340e+04 9.115410e-01
1.158350e+04 9.114681e-01
1.158360e+04 9.114487e-01
1.158370e+04 9.114822e-01
1.158380e+04 9.115680e-01
1.158390e+04 9.117058e-01
1.158400e+04 9.118949e-01
1.158410e+04 9.121350e-01
1.158420e+04 9.124258e-01
1.158430e+04 9.127669e-01
1.158440e+04 9.131579e-01
1.158450e+04 9.135985e-01
1.158460e+04 9.140884e-01
1.158470e+04 9.146273e-01
1.158480e+04 9.152149e-01
1.158490e+04 9.158507e-01
1.158500e+04 9.165346e-01
1.158510e+04 9.172659e-01
1.158520e+04 9.180445e-01
1.158530e+04 9.188698e-01
1.158540e+04 9.197413e-01
1.158550e+04 9.206586e-01
1.158560e+04 9.216210e-01
1.158570e+04 9.226280e-01
1.158580e+04 9.236789e-01
1.158590e+04 9.247730e-01
1.158600e+04 9.259095e-01
1.158610e+04 9.270878e-01
1.158620e+04 9.283067e-01
1.158630e+04 9.295656e-01
1.158640e+04 9.308633e-01
1.158650e+04 9.321989e-01
1.158660e+04 9.335712e-01
1.158670e+04 9.349790e-01
1.158680e+04 9.364212e-01
1.158690e+04 9.378965e-01
1.158700e+04 9.394033e-01
1.158710e+04 9.409404e-01
1.158720e+04 9.425062e-01
1.158730e+04 9.440990e-01
1.158740e+04 9.457172e-01
1.158750e+04 9.473590e-01
1.158760e+04 9.490227e-01
1.158770e+04 9.507061e-01
1.158780e+04 9.524074e-01
1.158790e+04 9.541244e-01
1.158800e+04 9.558550e-01
1.158810e+04 9.575968e-01
1.158820e+04 9.593475e-01
1.158830e+04 9.611047e-01
1.158840e+04 9.628659e-01
1.158850e+04 9.646284e-01
1.158860e+04 9.663897e-01
1.158870e+04 9.681470e-01
1.158880e+04 9.698976e-01
1.158890e+04 9.716386e-01
1.158900e+04 9.733672e-01
1.158910e+04 9.750806e-01
1.158920e+04 9.767757e-01
1.158930e+04 9.784498e-01
1.158940e+04 9.800999e-01
1.158950e+04 9.817231e-01
1.158960e+04 9.833167e-01
1.158970e+04 9.848778e-01
1.158980e+04 9.864036e-01
1.158990e+04 9.878916e-01
1.159000e+04 9.893391e-01
1.159010e+04 9.907437e-01
1.159020e+04 9.921030e-01
1.159030e+04 9.934147e-01
1.159040e+04 9.946768e-01
1.159050e+04 9.958874e-01
1.159060e+04 9.970446e-01
1.159070e+04 9.981469e-01
1.159080e+04 9.991927e-01
1.159090e+04 1.000181e+00
1.159100e+04 1.001111e+00
1.159110e+04 1.001981e+00
1.159120e+04 1.002791e+00
1.159130e+04 1.003540e+00
1.159140e+04 1.004229e+00
1.159150e+04 1.004856e+00
1.159160e+04 1.005423e+00
1.159170e+04 1.005930e+00
1.159180e+04 1.006377e+00
1.159190e+04 1.006765e+00
1.159200e+04 1.007095e+00
1.159210e+04 1.007367e+00
1.159220e+04 1.007584e+00
1.159230e+04 1.007747e+00
1.159240e+04 1.007857e+00
1.159250e+04 1.007916e+00
1.159260e+04 1.007926e+00
1.159270e+04 1.007888e+00
1.159280e+04 1.007804e+00
1.159290e+04 1.007678e+00
1.159300e+04 1.007509e+00
1.159310e+04 1.007302e+00
1.159320e+04 1.007058e+00
1.159330e+04 1.006779e+00
1.159340e+04 1.006467e+00
1.159350e+04 1.006126e+00
1.159360e+04 1.005756e+00
1.159370e+04 1.005361e+00
1.159380e+04 1.004942e+00
1.159390e+04 1.004501e+00
1.159400e+04 1.004042e+00
1.159450e+04 1.001526e+00
1.159500e+04 9.988197e-01
1.159550e+04 9.961204e-01
1.159600e+04 9.935807e-01
1.159650e+04 9.913059e-01
1.159700e+04 9.893537e-01
1.159750e+04 9.877352e-01
1.159800e+04 9.864172e-01
1.159850e+04 9.853285e-01
1.159900e+04 9.843720e-01
1.159950e+04 9.834416e-01
1.160000e+04 9.824419e-01
1.160050e+04 9.813066e-01
1.160100e+04 9.800122e-01
1.160150e+04 9.785841e-01
1.160200e+04 9.770942e-01
1.160250e+04 9.756517e-01
1.160300e+04 9.743879e-01
1.160350e+04 9.734403e-01
1.160400e+04 9.729375e-01
1.160450e+04 9.729865e-01
1.160500e+04 9.736656e-01
1.160550e+04 9.750211e-01
1.160600e+04 9.770678e-01
1.160650e+04 9.797934e-01
1.160700e+04 9.831636e-01
1.160750e+04 9.871288e-01
1.160800e+04 9.916289e-01
1.160850e+04 9.965979e-01
1.160900e+04 1.001966e+00
1.160950e+04 1.007662e+00
1.161000e+04 1.013612e+00
1.161050e+04 1.019740e+00
1.161100e+04 1.025965e+00
1.161150e+04 1.032205e+00
1.161200e+04 1.038372e+00
1.161250e+04 1.044372e+00
1.161300e+04 1.050106e+00
1.161350e+04 1.055475e+00
1.161400e+04 1.060381e+00
1.161450e+04 1.064734e+00
1.161500e+04 1.068458e+00
1.161550e+04 1.071503e+00
1.161600e+04 1.073847e+00
1.161650e+04 1.075502e+00
1.161700e+04 1.076510e+00
1.161750e+04 1.076941e+00
1.161800e+04 1.076885e+00
1.161850e+04 1.076441e+00
1.161900e+04 1.075703e+00
1.161950e+04 1.074758e+00
1.162000e+04 1.073676e+00
1.162050e+04 1.072511e+00
1.162100e+04 1.071298e+00
1.162150e+04 1.070060e+00
1.162200e+04 1.068809e+00
