 11564.000   78  2  3  2.3455774E-02 -9.8236436E+00  0.0000000E+00  1  1  1.1435663E+04  1.5327454E+01  0.0000000E+00  4.7160101E-01  1.0000000E+00  0.0000000E+00  = E_edge, Z, n_edge, j_edge, Abs_before_edge, VO_interstitial, E_cut, ninit, ninit1, Epsii, UnitCell_Volume, Surface_ref, f0_forward, natomsym_f, abs_u_iso
    Energy    <xanes>    
  11414.00  3.2856833E-18
  11414.50  3.3821848E-18
  11415.00  3.4821111E-18
  11415.50  3.5855065E-18
  11416.00  3.6932741E-18
  11416.50  3.8048658E-18
  11417.00  3.9212354E-18
  11417.50  4.0418791E-18
  11418.00  4.1670332E-18
  11418.50  4.2974261E-18
  11419.00  4.4329748E-18
  11419.50  4.5743261E-18
  11420.00  4.7209037E-18
  11420.50  4.8731913E-18
  11421.00  5.0324998E-18
  11421.50  5.1980086E-18
  11422.00  5.3710501E-18
  11422.50  5.5508805E-18
  11423.00  5.7391090E-18
  11423.50  5.9355732E-18
  11424.00  6.1403130E-18
  11424.50  6.3546319E-18
  11425.00  6.5792907E-18
  11425.50  6.8141005E-18
  11426.00  7.0593029E-18
  11426.50  7.3171065E-18
  11427.00  7.5860794E-18
  11427.50  7.8670484E-18
  11428.00  8.1630675E-18
  11428.50  8.4716122E-18
  11429.00  8.7980183E-18
  11429.50  9.1406748E-18
  11430.00  9.5017047E-18
  11430.50  9.8808842E-18
  11431.00  1.0279117E-17
  11431.50  1.0701686E-17
  11432.00  1.1146293E-17
  11432.50  1.1614816E-17
  11433.00  1.2109684E-17
  11433.50  1.2632546E-17
  11434.00  1.3185020E-17
  11434.50  1.3771314E-17
  11435.00  1.4391970E-17
  11435.50  1.5051078E-17
  11436.00  1.5751922E-17
  11436.50  1.6495634E-17
  11437.00  1.7287386E-17
  11437.50  1.8136237E-17
  11438.00  1.9036141E-17
  11438.50  2.0003037E-17
  11439.00  2.1034909E-17
  11439.50  2.2139909E-17
  11440.00  2.3324135E-17
  11440.50  2.4590512E-17
  11441.00  2.5952150E-17
  11441.50  2.7428037E-17
  11442.00  2.9017773E-17
  11442.50  3.0738141E-17
  11443.00  3.2601396E-17
  11443.50  3.4624796E-17
  11444.00  3.6830297E-17
  11444.50  3.9227301E-17
  11445.00  4.1852906E-17
  11445.50  4.4731000E-17
  11446.00  4.7887206E-17
  11446.50  5.1344796E-17
  11447.00  5.5175439E-17
  11447.50  5.9425993E-17
  11448.00  6.4152487E-17
  11448.50  6.9424867E-17
  11449.00  7.5334599E-17
  11449.50  8.1973638E-17
  11450.00  8.9489561E-17
  11450.50  9.8034415E-17
  11451.00  1.0777406E-16
  11451.50  1.1896171E-16
  11452.00  1.3187791E-16
  11452.50  1.4687360E-16
  11453.00  1.6448236E-16
  11453.50  1.8529537E-16
  11454.00  2.1015128E-16
  11454.50  2.4017453E-16
  11455.00  2.7693146E-16
  11455.50  3.2247121E-16
  11456.00  3.7972122E-16
  11456.50  4.5331249E-16
  11457.00  5.4987126E-16
  11457.50  6.7934350E-16
  11458.00  8.5935697E-16
  11458.50  1.1198301E-15
  11459.00  1.5166000E-15
  11459.50  2.1636169E-15
  11460.00  3.3236553E-15
  11460.50  5.7172320E-15
  11461.00  1.1937426E-14
  11461.50  3.7100475E-14
  11462.00  1.1130638E-15
  11462.50  8.2563018E-14
  11463.00  1.7844905E-14
  11463.50  7.6492240E-15
  11464.00  4.2179760E-15
  11464.50  2.6681443E-15
  11465.00  1.8406875E-15
  11465.50  1.3468988E-15
  11466.00  1.0287310E-15
  11466.50  8.1237298E-16
  11467.00  6.5790281E-16
  11467.50  5.4410421E-16
  11468.00  4.5785980E-16
  11468.50  3.9082877E-16
  11469.00  3.3751535E-16
  11469.50  2.9453021E-16
  11470.00  2.5927953E-16
  11470.50  2.3023145E-16
  11471.00  2.0563149E-16
  11471.50  1.8488245E-16
  11472.00  1.6713189E-16
  11472.50  1.5186948E-16
  11473.00  1.3861876E-16
  11473.50  1.2706018E-16
  11474.00  1.1683523E-16
  11474.50  1.0782447E-16
  11475.00  9.9796883E-17
  11475.50  9.2689160E-17
  11476.00  8.6196677E-17
  11476.50  8.0327670E-17
  11477.00  7.5174243E-17
  11477.50  7.0399320E-17
  11478.00  6.6041356E-17
  11478.50  6.2098415E-17
  11479.00  5.8446668E-17
  11479.50  5.5088847E-17
  11480.00  5.2022535E-17
  11480.50  4.9151353E-17
  11481.00  4.6551350E-17
  11481.50  4.4061992E-17
  11482.00  4.1800946E-17
  11482.50  3.9694241E-17
  11483.00  3.7660246E-17
  11483.50  3.5793126E-17
  11484.00  3.3994531E-17
  11484.50  3.2375926E-17
  11485.00  3.0796952E-17
  11485.50  2.9341910E-17
  11486.00  2.7937481E-17
  11486.50  2.6601434E-17
  11487.00  2.5368880E-17
  11487.50  2.4176518E-17
  11488.00  2.3034492E-17
  11488.50  2.1922428E-17
  11489.00  2.0877515E-17
  11489.50  1.9909572E-17
  11490.00  1.8964228E-17
  11490.50  1.8095702E-17
  11491.00  1.7273137E-17
  11491.50  1.6545906E-17
  11492.00  1.5999083E-17
  11492.50  1.5846706E-17
  11493.00  1.7026477E-17
  11493.50  2.7310945E-17
  11494.00  2.1296204E-12
  11494.50  3.2318675E-17
  11495.00  1.6266156E-17
  11495.50  1.2741645E-17
  11496.00  1.1008745E-17
  11496.50  9.8264057E-18
  11497.00  8.9229801E-18
  11497.50  8.1114012E-18
  11498.00  7.3772052E-18
  11498.50  6.7190678E-18
  11499.00  6.1137049E-18
  11499.50  5.5499637E-18
  11500.00  5.0955588E-18
  11500.50  4.7639545E-18
  11501.00  4.5525079E-18
  11501.50  4.5712891E-18
  11502.00  4.8907312E-18
  11502.50  5.6767143E-18
  11503.00  7.1769286E-18
  11503.50  9.7916830E-18
  11504.00  1.4203484E-17
  11504.50  2.1381784E-17
  11505.00  3.3227472E-17
  11505.50  5.2590713E-17
  11506.00  8.3671598E-17
  11506.50  1.2917651E-16
  11507.00  1.7412392E-16
  11507.50  1.9538819E-16
  11508.00  3.7948426E-15
  11508.50  2.8191366E-13
  11509.00  9.6527212E-11
  11509.50  8.8782456E-03
  11510.00  8.2864545E-09
  11510.50  1.4126909E-11
  11511.00  6.0364732E-13
  11511.50  7.6999406E-14
  11512.00  1.7233896E-14
  11512.50  5.4333108E-15
  11513.00  2.1580025E-15
  11513.50  1.0137154E-15
  11514.00  5.4088171E-16
  11514.50  3.1959091E-16
  11515.00  2.0548486E-16
  11515.50  1.4192550E-16
  11516.00  1.0426499E-16
  11516.50  8.0844968E-17
  11517.00  6.5643055E-17
  11517.50  5.5566682E-17
  11518.00  4.8685072E-17
  11518.50  4.4021864E-17
  11519.00  4.0848805E-17
  11519.50  3.8837272E-17
  11520.00  3.7635980E-17
  11520.50  3.7306639E-17
  11521.00  3.7561916E-17
  11521.50  3.8358567E-17
  11522.00  3.9757004E-17
  11522.50  4.1792309E-17
  11523.00  4.4510962E-17
  11523.50  4.7949917E-17
  11524.00  5.2217342E-17
  11524.50  5.7474014E-17
  11525.00  6.3993262E-17
  11525.50  7.1837633E-17
  11526.00  8.1360806E-17
  11526.50  9.3094387E-17
  11527.00  1.0728084E-16
  11527.50  1.2460016E-16
  11528.00  1.4573990E-16
  11528.50  1.7179351E-16
  11529.00  2.0408112E-16
  11529.50  2.4402728E-16
  11530.00  2.9369195E-16
  11530.50  3.5593505E-16
  11531.00  4.3418228E-16
  11531.50  5.3316140E-16
  11532.00  6.5906663E-16
  11532.50  8.1999980E-16
  11533.00  1.0273163E-15
  11533.50  1.2959604E-15
  11534.00  1.6460821E-15
  11534.50  2.1061912E-15
  11535.00  2.7145769E-15
  11535.50  3.5254551E-15
  11536.00  4.6146257E-15
  11536.50  6.0896941E-15
  11537.00  8.1032059E-15
  11537.50  1.0877500E-14
  11538.00  1.4735404E-14
  11538.50  2.0148313E-14
  11539.00  2.7824887E-14
  11539.50  3.8827452E-14
  11540.00  5.4756759E-14
  11540.50  7.8108727E-14
  11541.00  1.1276174E-13
  11541.50  1.6478161E-13
  11542.00  2.4405523E-13
  11542.50  3.6647008E-13
  11543.00  5.5849219E-13
  11543.50  8.6476028E-13
  11544.00  1.3608536E-12
  11544.50  2.1812106E-12
  11545.00  3.5623462E-12
  11545.50  5.9426840E-12
  11546.00  1.0134949E-11
  11546.50  1.7725064E-11
  11547.00  3.1833641E-11
  11547.50  5.8965753E-11
  11548.00  1.1288012E-10
  11548.50  2.2471896E-10
  11549.00  4.6751586E-10
  11549.50  1.0241552E-09
  11550.00  2.3898909E-09
  11550.50  6.0092195E-09
  11551.00  1.6630209E-08
  11551.50  5.2214611E-08
  11552.00  1.9554356E-07
  11552.50  9.5792207E-07
  11553.00  7.5206872E-06
  11553.50  1.1956663E-04
  11554.00  1.0272754E-03
  11554.10  1.2235017E-03
  11554.20  1.3343698E-03
  11554.30  1.3812061E-03
  11554.40  1.3997030E-03
  11554.50  1.4163723E-03
  11554.60  1.4459851E-03
  11554.70  1.4963869E-03
  11554.80  1.5722977E-03
  11554.90  1.6778646E-03
  11555.00  1.8174378E-03
  11555.10  1.9959569E-03
  11555.20  2.2186255E-03
  11555.30  2.4918861E-03
  11555.40  2.8227014E-03
  11555.50  3.2188336E-03
  11555.60  3.6890899E-03
  11555.70  4.2434129E-03
  11555.80  4.8929377E-03
  11555.90  5.6496323E-03
  11556.00  6.5240236E-03
  11556.10  7.5227332E-03
  11556.20  8.6482234E-03
  11556.30  9.9101820E-03
  11556.40  1.1374188E-02
  11556.50  1.3296684E-02
  11556.60  1.6628973E-02
  11556.70  2.9101390E-02
  11556.80  6.1548535E-02
  11556.90  1.3485233E-01
  11557.00  4.2692855E-02
  11557.10  3.3802452E-02
  11557.20  3.7234944E-02
  11557.30  6.0973951E-02
  11557.40  1.6618233E-01
  11557.50  3.9677280E-01
  11557.60  1.5399146E-01
  11557.70  5.2395896E-01
  11557.80  7.9131256E-02
  11557.90  6.5130713E-02
  11558.00  1.5047222E-01
  11558.10  6.4095488E-02
  11558.20  1.9226705E-01
  11558.30  2.9201718E-01
  11558.40  2.4884074E-01
  11558.50  1.4198688E-01
  11558.60  1.3992040E-01
  11558.70  2.0243648E-01
  11558.80  2.2089916E-01
  11558.90  2.0892937E-01
  11559.00  1.4041547E-01
  11559.10  1.2879641E-01
  11559.20  1.6225816E-01
  11559.30  2.2991101E-01
  11559.40  1.8152786E-01
  11559.50  2.1507418E-01
  11559.60  2.7085145E-01
  11559.70  2.1516404E-01
  11559.80  2.2473460E-01
  11559.90  2.2404067E-01
  11560.00  2.9143640E-01
  11560.10  3.3201534E-01
  11560.20  4.0018854E-01
  11560.30  4.7742207E-01
  11560.40  4.7087509E-01
  11560.50  3.3741112E-01
  11560.60  1.9082763E-01
  11560.70  3.0730699E-01
  11560.80  4.2058186E-01
  11560.90  1.4198896E-01
  11561.00  1.0807905E-01
  11561.10  3.0169571E-01
  11561.20  4.6850338E-01
  11561.30  2.7582218E-01
  11561.40  2.1525109E-01
  11561.50  2.2356653E-01
  11561.60  2.9634353E-01
  11561.70  2.9645719E-01
  11561.80  3.0549449E-01
  11561.90  2.9349436E-01
  11562.00  2.7968519E-01
  11562.10  2.9372946E-01
  11562.20  3.9253500E-01
  11562.30  4.0840666E-01
  11562.40  2.8039430E-01
  11562.50  2.1807245E-01
  11562.60  2.2018033E-01
  11562.70  2.2134332E-01
  11562.80  1.9679159E-01
  11562.90  1.7095311E-01
  11563.00  1.7099846E-01
  11563.10  1.8239839E-01
  11563.20  2.0463765E-01
  11563.30  2.4858937E-01
  11563.40  3.6414970E-01
  11563.50  4.7594924E-01
  11563.60  6.4839135E-01
  11563.70  6.3998525E-01
  11563.80  5.6247610E-01
  11563.90  2.6349342E-01
  11564.00  2.6562082E-01
  11564.10  9.7559575E-01
  11564.20  2.7230234E-01
  11564.30  1.3217303E-01
  11564.40  1.0395821E-01
  11564.50  9.2519676E-02
  11564.60  8.6166709E-02
  11564.70  8.2021773E-02
  11564.80  7.9111330E-02
  11564.90  7.7045328E-02
  11565.00  7.5632758E-02
  11565.10  7.4736320E-02
  11565.20  7.4211087E-02
  11565.30  7.3883102E-02
  11565.40  7.3553994E-02
  11565.50  7.3025229E-02
  11565.60  7.2133191E-02
  11565.70  7.0781044E-02
  11565.80  6.8953075E-02
  11565.90  6.6705960E-02
  11566.00  6.4143409E-02
  11566.10  6.1387144E-02
  11566.20  5.8553853E-02
  11566.30  5.5741996E-02
  11566.40  5.3026924E-02
  11566.50  5.0461270E-02
  11566.60  4.8077951E-02
  11566.70  4.5894085E-02
  11566.80  4.3914872E-02
  11566.90  4.2137039E-02
  11567.00  4.0551628E-02
  11567.10  3.9146264E-02
  11567.20  3.7906807E-02
  11567.30  3.6818552E-02
  11567.40  3.5867042E-02
  11567.50  3.5038625E-02
  11567.60  3.4320679E-02
  11567.70  3.3701709E-02
  11567.80  3.3171299E-02
  11567.90  3.2719970E-02
  11568.00  3.2338999E-02
  11568.10  3.2020242E-02
  11568.20  3.1755993E-02
  11568.30  3.1538920E-02
  11568.40  3.1362090E-02
  11568.50  3.1219121E-02
  11568.60  3.1104457E-02
  11568.70  3.1013780E-02
  11568.80  3.0944529E-02
  11568.90  3.0896523E-02
  11569.00  3.0872653E-02
  11569.10  3.0879616E-02
  11569.20  3.0928689E-02
  11569.30  3.1036597E-02
  11569.40  3.1226561E-02
  11569.50  3.1529720E-02
  11569.60  3.1987195E-02
  11569.70  3.2653102E-02
  11569.80  3.3598761E-02
  11569.90  3.4917700E-02
  11570.00  3.6728504E-02
  11570.10  3.9167338E-02
  11570.20  4.2348750E-02
  11570.30  4.6255719E-02
  11570.40  5.0533257E-02
  11570.50  5.4309746E-02
  11570.60  5.6428371E-02
  11570.70  5.6225294E-02
  11570.80  5.4033401E-02
  11570.90  5.0755659E-02
  11571.00  4.7187484E-02
  11571.10  4.3773518E-02
  11571.20  4.0690746E-02
  11571.30  3.7980403E-02
  11571.40  3.5630315E-02
  11571.50  3.3611813E-02
  11571.60  3.1892757E-02
  11571.70  3.0441425E-02
  11571.80  2.9226678E-02
  11571.90  2.8218074E-02
  11572.00  2.7386324E-02
  11572.10  2.6704077E-02
  11572.20  2.6146941E-02
  11572.30  2.5695484E-02
  11572.40  2.5329564E-02
  11572.50  2.5036738E-02
  11572.60  2.4804786E-02
  11572.70  2.4622734E-02
  11572.80  2.4480801E-02
  11572.90  2.4371142E-02
  11573.00  2.4289649E-02
  11573.10  2.4236903E-02
  11573.20  2.4218438E-02
  11573.30  2.4246242E-02
  11573.40  2.4337211E-02
  11573.50  2.4511417E-02
  11573.60  2.4790251E-02
  11573.70  2.5194902E-02
  11573.80  2.5745337E-02
  11573.90  2.6459653E-02
  11574.00  2.7353471E-02
  11574.10  2.8438915E-02
  11574.20  2.9722711E-02
  11574.30  3.1202946E-02
  11574.40  3.2864375E-02
  11574.50  3.4672572E-02
  11574.60  3.6568421E-02
  11574.70  3.8465933E-02
  11574.80  4.0257471E-02
  11574.90  4.1829346E-02
  11575.00  4.3085715E-02
  11575.10  4.3972660E-02
  11575.20  4.4491477E-02
  11575.30  4.4695749E-02
  11575.40  4.4675637E-02
  11575.50  4.4537823E-02
  11575.60  4.4387832E-02
  11575.70  4.4316954E-02
  11575.80  4.4393041E-02
  11575.90  4.4653825E-02
  11576.00  4.5102459E-02
  11576.10  4.5706240E-02
  11576.20  4.6401770E-02
  11576.30  4.7102615E-02
  11576.40  4.7718259E-02
  11576.50  4.8172347E-02
  11576.60  4.8415046E-02
  11576.70  4.8425636E-02
  11576.80  4.8208189E-02
  11576.90  4.7784606E-02
  11577.00  4.7193108E-02
  11577.10  4.6489584E-02
  11577.20  4.5748511E-02
  11577.30  4.5059444E-02
  11577.40  4.4519735E-02
  11577.50  4.4226870E-02
  11577.60  4.4273089E-02
  11577.70  4.4740033E-02
  11577.80  4.5689265E-02
  11577.90  4.7136506E-02
  11578.00  4.9002619E-02
  11578.10  5.1053487E-02
  11578.20  5.2920143E-02
  11578.30  5.4231876E-02
  11578.40  5.4763852E-02
  11578.50  5.4517023E-02
  11578.60  5.3629238E-02
  11578.70  5.2219406E-02
  11578.80  5.0316588E-02
  11578.90  4.7923456E-02
  11579.00  4.5144855E-02
  11579.10  4.2218369E-02
  11579.20  3.9403196E-02
  11579.30  3.6877969E-02
  11579.40  3.4745040E-02
  11579.50  3.3089248E-02
  11579.60  3.2050308E-02
  11579.70  3.1928930E-02
  11579.80  3.3418637E-02
  11579.90  3.8014864E-02
  11580.00  4.7171703E-02
  11580.10  5.3527197E-02
  11580.20  4.6589147E-02
  11580.30  3.7335665E-02
  11580.40  3.1396616E-02
  11580.50  2.7841600E-02
  11580.60  2.5591583E-02
  11580.70  2.4075548E-02
  11580.80  2.3010160E-02
  11580.90  2.2250482E-02
  11581.00  2.1718287E-02
  11581.10  2.1367660E-02
  11581.20  2.1168243E-02
  11581.30  2.1097122E-02
  11581.40  2.1134922E-02
  11581.50  2.1264189E-02
  11581.60  2.1468824E-02
  11581.70  2.1734348E-02
  11581.80  2.2048480E-02
  11581.90  2.2401837E-02
  11582.00  2.2788648E-02
  11582.10  2.3207455E-02
  11582.20  2.3661578E-02
  11582.30  2.4159485E-02
  11582.40  2.4714909E-02
  11582.50  2.5346316E-02
  11582.60  2.6075750E-02
  11582.70  2.6926870E-02
  11582.80  2.7922235E-02
  11582.90  2.9079092E-02
  11583.00  3.0404355E-02
  11583.10  3.1887518E-02
  11583.20  3.3490179E-02
  11583.30  3.5131631E-02
  11583.40  3.6673722E-02
  11583.50  3.7918852E-02
  11583.60  3.8646945E-02
  11583.70  3.8706152E-02
  11583.80  3.8108976E-02
  11583.90  3.7030733E-02
  11584.00  3.5698885E-02
  11584.10  3.4290624E-02
  11584.20  3.2905396E-02
  11584.30  3.1586938E-02
  11584.40  3.0350744E-02
  11584.50  2.9200164E-02
  11584.60  2.8135151E-02
  11584.70  2.7152544E-02
  11584.80  2.6248313E-02
  11584.90  2.5418168E-02
  11585.00  2.4657609E-02
  11585.10  2.3982641E-02
  11585.20  2.3354973E-02
  11585.30  2.2797550E-02
  11585.40  2.2316826E-02
  11585.50  2.1922559E-02
  11585.60  2.1626449E-02
  11585.70  2.1442498E-02
  11585.80  2.1388083E-02
  11585.90  2.1485973E-02
  11586.00  2.1768174E-02
  11586.10  2.2282221E-02
  11586.20  2.3101776E-02
  11586.30  2.4339738E-02
  11586.40  2.6169784E-02
  11586.50  2.8841157E-02
  11586.60  3.2636328E-02
  11586.70  3.7590912E-02
  11586.80  4.2703290E-02
  11586.90  4.5389991E-02
  11587.00  4.3788498E-02
  11587.10  3.9496314E-02
  11587.20  3.5124452E-02
  11587.30  3.1798193E-02
  11587.40  2.9552559E-02
  11587.50  2.8126310E-02
  11587.60  2.7268395E-02
  11587.70  2.6794274E-02
  11587.80  2.6576063E-02
  11587.90  2.6524419E-02
  11588.00  2.6575519E-02
  11588.10  2.6683058E-02
  11588.20  2.6813708E-02
  11588.30  2.6944692E-02
  11588.40  2.7062429E-02
  11588.50  2.7160793E-02
  11588.60  2.7240637E-02
  11588.70  2.7308356E-02
  11588.80  2.7373980E-02
  11588.90  2.7450243E-02
  11589.00  2.7551471E-02
  11589.10  2.7692905E-02
  11589.20  2.7889941E-02
  11589.30  2.8158624E-02
  11589.40  2.8515876E-02
  11589.50  2.8980176E-02
  11589.60  2.9572446E-02
  11589.70  3.0317119E-02
  11589.80  3.1243903E-02
  11589.90  3.2388624E-02
  11590.00  3.3795370E-02
  11590.10  3.5519574E-02
  11590.20  3.7630888E-02
  11590.30  4.0216297E-02
  11590.40  4.3381235E-02
  11590.50  4.7243279E-02
  11590.60  5.1906603E-02
  11590.70  5.7391489E-02
  11590.80  6.3488939E-02
  11590.90  6.9569690E-02
  11591.00  7.4527324E-02
  11591.10  7.7219976E-02
  11591.20  7.7347007E-02
  11591.30  7.5793209E-02
  11591.40  7.3909165E-02
  11591.50  7.2611589E-02
  11591.60  7.2061431E-02
  11591.70  7.1835277E-02
  11591.80  7.1384360E-02
  11591.90  7.0469527E-02
  11592.00  6.9147174E-02
  11592.10  6.7461125E-02
  11592.20  6.5321555E-02
  11592.30  6.2611618E-02
  11592.40  5.9317040E-02
  11592.50  5.5576197E-02
  11592.60  5.1641563E-02
  11592.70  4.7788426E-02
  11592.80  4.4231919E-02
  11592.90  4.1095335E-02
  11593.00  3.8419255E-02
  11593.10  3.6189605E-02
  11593.20  3.4359866E-02
  11593.30  3.2877013E-02
  11593.40  3.1690815E-02
  11593.50  3.0757651E-02
  11593.60  3.0044453E-02
  11593.70  2.9527868E-02
  11593.80  2.9190988E-02
  11593.90  2.9022038E-02
  11594.00  2.9012538E-02
  11594.50  3.1128284E-02
  11595.00  3.6142359E-02
  11595.50  4.1879784E-02
  11596.00  4.2033321E-02
  11596.50  3.4495479E-02
  11597.00  2.7968993E-02
  11597.50  2.5288803E-02
  11598.00  2.5466231E-02
  11598.50  2.8487699E-02
  11599.00  3.4444563E-02
  11599.50  4.0736685E-02
  11600.00  4.8537373E-02
  11600.50  5.2834077E-02
  11601.00  4.9588815E-02
  11601.50  4.2940884E-02
  11602.00  3.7367857E-02
  11602.50  3.3564873E-02
  11603.00  3.0667088E-02
  11603.50  2.8207966E-02
  11604.00  2.7057713E-02
  11604.50  2.7335880E-02
  11605.00  2.7283929E-02
  11605.50  2.6896883E-02
  11606.00  2.7816592E-02
  11606.50  3.1182984E-02
  11607.00  3.4858771E-02
  11607.50  3.6111490E-02
  11608.00  3.4654138E-02
  11608.50  3.2799411E-02
  11609.00  3.2681421E-02
  11609.50  3.4739297E-02
  11610.00  3.7085240E-02
  11610.50  3.8278759E-02
  11611.00  3.8495189E-02
  11611.50  3.8627912E-02
  11612.00  3.9133807E-02
  11612.50  3.9244978E-02
  11613.00  3.8944469E-02
  11613.50  3.9509972E-02
  11614.00  4.2158131E-02
  11614.50  4.6387809E-02
  11615.00  4.9820992E-02
  11615.50  5.2796774E-02
  11616.00  5.6607529E-02
  11616.50  5.7561525E-02
  11617.00  5.0252313E-02
  11617.50  4.2959968E-02
  11618.00  3.9119039E-02
  11618.50  3.7277440E-02
  11619.00  3.6600091E-02
  11619.50  3.6871132E-02
  11620.00  3.7841330E-02
  11620.50  3.9199675E-02
  11621.00  4.0891011E-02
  11621.50  4.2353550E-02
  11622.00  4.2823971E-02
  11622.50  4.2244583E-02
  11623.00  4.1307573E-02
  11623.50  4.0653718E-02
  11624.00  4.0225517E-02
  11625.00  3.8822264E-02
  11626.00  3.8165805E-02
  11627.00  3.8672845E-02
  11628.00  3.9082218E-02
  11629.00  4.0304758E-02
  11630.00  4.1596365E-02
  11631.00  4.1440777E-02
  11632.00  4.1110536E-02
  11633.00  4.1655419E-02
  11634.00  4.1117528E-02
  11635.00  3.8996270E-02
  11636.00  3.6997501E-02
  11637.00  3.6003918E-02
  11638.00  3.5826804E-02
